E(V)	i(A/cm²)	T(s)
2.92166E+00	-1.15654E-01	0.00000
2.92143E+00	-1.16241E-01	1.00000
2.92092E+00	-1.19397E-01	2.00000
2.92044E+00	-1.21932E-01	3.00000
2.91993E+00	-1.25222E-01	4.00000
2.91941E+00	-1.28740E-01	5.00000
2.91892E+00	-1.31320E-01	6.00000
2.91844E+00	-1.33883E-01	7.00000
2.91792E+00	-1.37254E-01	8.00000
2.91741E+00	-1.40401E-01	9.00000
2.91694E+00	-1.42689E-01	10.00000
2.91644E+00	-1.45506E-01	11.00000
2.91592E+00	-1.48741E-01	12.00000
2.91542E+00	-1.51350E-01	13.00000
2.91494E+00	-1.53455E-01	14.00000
2.91443E+00	-1.56265E-01	15.00000
2.91392E+00	-1.59245E-01	16.00000
2.91343E+00	-1.61275E-01	17.00000
2.91295E+00	-1.63386E-01	18.00000
2.91243E+00	-1.66174E-01	19.00000
2.91192E+00	-1.68669E-01	20.00000
2.91145E+00	-1.70412E-01	21.00000
2.91095E+00	-1.72793E-01	22.00000
2.91042E+00	-1.75529E-01	23.00000
2.90993E+00	-1.77400E-01	24.00000
2.90946E+00	-1.78955E-01	25.00000
2.90895E+00	-1.81331E-01	26.00000
2.90843E+00	-1.83721E-01	27.00000
2.90795E+00	-1.85109E-01	28.00000
2.90746E+00	-1.86874E-01	29.00000
2.90694E+00	-1.89329E-01	30.00000
2.90644E+00	-1.91239E-01	31.00000
2.90596E+00	-1.92494E-01	32.00000
2.90545E+00	-1.94485E-01	33.00000
2.90493E+00	-1.96669E-01	34.00000
2.90445E+00	-1.97909E-01	35.00000
2.90397E+00	-1.99143E-01	36.00000
2.90346E+00	-2.01167E-01	37.00000
2.90295E+00	-2.02985E-01	38.00000
2.90247E+00	-2.03911E-01	39.00000
2.90198E+00	-2.05377E-01	40.00000
2.90145E+00	-2.07406E-01	41.00000
2.90096E+00	-2.08766E-01	42.00000
2.90048E+00	-2.09690E-01	43.00000
2.89997E+00	-2.11388E-01	44.00000
2.89946E+00	-2.13157E-01	45.00000
2.89898E+00	-2.14007E-01	46.00000
2.89849E+00	-2.15029E-01	47.00000
2.89798E+00	-2.16705E-01	48.00000
2.89747E+00	-2.18120E-01	49.00000
2.89699E+00	-2.18806E-01	50.00000
2.89649E+00	-2.20102E-01	51.00000
2.89597E+00	-2.21862E-01	52.00000
2.89547E+00	-2.22788E-01	53.00000
2.89500E+00	-2.23396E-01	54.00000
2.89449E+00	-2.24813E-01	55.00000
2.89398E+00	-2.26211E-01	56.00000
2.89350E+00	-2.26738E-01	57.00000
2.89300E+00	-2.27646E-01	58.00000
2.89249E+00	-2.29116E-01	59.00000
2.89199E+00	-2.30121E-01	60.00000
2.89151E+00	-2.30559E-01	61.00000
2.89101E+00	-2.31747E-01	62.00000
2.89049E+00	-2.33139E-01	63.00000
2.89000E+00	-2.33716E-01	64.00000
2.88952E+00	-2.34171E-01	65.00000
2.88901E+00	-2.35385E-01	66.00000
2.88849E+00	-2.36489E-01	67.00000
2.88802E+00	-2.36857E-01	68.00000
2.88752E+00	-2.37756E-01	69.00000
2.88700E+00	-2.39008E-01	70.00000
2.88650E+00	-2.39629E-01	71.00000
2.88603E+00	-2.39887E-01	72.00000
2.88552E+00	-2.40859E-01	73.00000
2.88500E+00	-2.41874E-01	74.00000
2.88452E+00	-2.42213E-01	75.00000
2.88403E+00	-2.42705E-01	76.00000
2.88352E+00	-2.43657E-01	77.00000
2.88302E+00	-2.44259E-01	78.00000
2.88254E+00	-2.44459E-01	79.00000
2.88204E+00	-2.45317E-01	80.00000
2.88152E+00	-2.46379E-01	81.00000
2.88103E+00	-2.46757E-01	82.00000
2.88055E+00	-2.46931E-01	83.00000
2.88004E+00	-2.47705E-01	84.00000
2.87953E+00	-2.48441E-01	85.00000
2.87905E+00	-2.48686E-01	86.00000
2.87855E+00	-2.49212E-01	87.00000
2.87804E+00	-2.50074E-01	88.00000
2.87754E+00	-2.50398E-01	89.00000
2.87706E+00	-2.50506E-01	90.00000
2.87655E+00	-2.51142E-01	91.00000
2.87603E+00	-2.51873E-01	92.00000
2.87554E+00	-2.52117E-01	93.00000
2.87506E+00	-2.52283E-01	94.00000
2.87455E+00	-2.52949E-01	95.00000
2.87403E+00	-2.53362E-01	96.00000
2.87356E+00	-2.53500E-01	97.00000
2.87306E+00	-2.54057E-01	98.00000
2.87254E+00	-2.54739E-01	99.00000
2.87205E+00	-2.54847E-01	100.00000
2.87157E+00	-2.54883E-01	101.00000
2.87106E+00	-2.55381E-01	102.00000
2.87054E+00	-2.55858E-01	103.00000
2.87006E+00	-2.56017E-01	104.00000
2.86957E+00	-2.56294E-01	105.00000
2.86905E+00	-2.56854E-01	106.00000
2.86855E+00	-2.56968E-01	107.00000
2.86807E+00	-2.57035E-01	108.00000
2.86756E+00	-2.57515E-01	109.00000
2.86704E+00	-2.57996E-01	110.00000
2.86655E+00	-2.58005E-01	111.00000
2.86607E+00	-2.58029E-01	112.00000
2.86556E+00	-2.58332E-01	113.00000
2.86505E+00	-2.58506E-01	114.00000
2.86458E+00	-2.58573E-01	115.00000
2.86409E+00	-2.58893E-01	116.00000
2.86357E+00	-2.59244E-01	117.00000
2.86307E+00	-2.59125E-01	118.00000
2.86259E+00	-2.59202E-01	119.00000
2.86208E+00	-2.59528E-01	120.00000
2.86157E+00	-2.59690E-01	121.00000
2.86109E+00	-2.59745E-01	122.00000
2.86060E+00	-2.59817E-01	123.00000
2.86008E+00	-2.60090E-01	124.00000
2.85957E+00	-2.60115E-01	125.00000
2.85910E+00	-2.60214E-01	126.00000
2.85860E+00	-2.60584E-01	127.00000
2.85808E+00	-2.60839E-01	128.00000
2.85758E+00	-2.60645E-01	129.00000
2.85710E+00	-2.60665E-01	130.00000
2.85659E+00	-2.60806E-01	131.00000
2.85607E+00	-2.60860E-01	132.00000
2.85560E+00	-2.60924E-01	133.00000
2.85511E+00	-2.60965E-01	134.00000
2.85460E+00	-2.61018E-01	135.00000
2.85409E+00	-2.60987E-01	136.00000
2.85361E+00	-2.60995E-01	137.00000
2.85311E+00	-2.61178E-01	138.00000
2.85259E+00	-2.61241E-01	139.00000
2.85210E+00	-2.61064E-01	140.00000
2.85162E+00	-2.61026E-01	141.00000
2.85111E+00	-2.61127E-01	142.00000
2.85059E+00	-2.61148E-01	143.00000
2.85012E+00	-2.61188E-01	144.00000
2.84962E+00	-2.61313E-01	145.00000
2.84910E+00	-2.61368E-01	146.00000
2.84860E+00	-2.61119E-01	147.00000
2.84813E+00	-2.61054E-01	148.00000
2.84762E+00	-2.61115E-01	149.00000
2.84710E+00	-2.61113E-01	150.00000
2.84661E+00	-2.60888E-01	151.00000
2.84613E+00	-2.60813E-01	152.00000
2.84562E+00	-2.60712E-01	153.00000
2.84511E+00	-2.60622E-01	154.00000
2.84464E+00	-2.60558E-01	155.00000
2.84414E+00	-2.60551E-01	156.00000
2.84362E+00	-2.60527E-01	157.00000
2.84313E+00	-2.60124E-01	158.00000
2.84265E+00	-2.60008E-01	159.00000
2.84214E+00	-2.59898E-01	160.00000
2.84163E+00	-2.59822E-01	161.00000
2.84115E+00	-2.59569E-01	162.00000
2.84066E+00	-2.59570E-01	163.00000
2.84014E+00	-2.59488E-01	164.00000
2.83964E+00	-2.59264E-01	165.00000
2.83916E+00	-2.59162E-01	166.00000
2.83866E+00	-2.59077E-01	167.00000
2.83814E+00	-2.59015E-01	168.00000
2.83765E+00	-2.58580E-01	169.00000
2.83717E+00	-2.58460E-01	170.00000
2.83665E+00	-2.58320E-01	171.00000
2.83614E+00	-2.58186E-01	172.00000
2.83567E+00	-2.57989E-01	173.00000
2.83517E+00	-2.57919E-01	174.00000
2.83465E+00	-2.57891E-01	175.00000
2.83416E+00	-2.57488E-01	176.00000
2.83368E+00	-2.57345E-01	177.00000
2.83317E+00	-2.57181E-01	178.00000
2.83265E+00	-2.57079E-01	179.00000
2.83216E+00	-2.56581E-01	180.00000
2.83168E+00	-2.56427E-01	181.00000
2.83117E+00	-2.56320E-01	182.00000
2.83066E+00	-2.56025E-01	183.00000
2.83019E+00	-2.55790E-01	184.00000
2.82968E+00	-2.55728E-01	185.00000
2.82916E+00	-2.55632E-01	186.00000
2.82866E+00	-2.55079E-01	187.00000
2.82819E+00	-2.54828E-01	188.00000
2.82767E+00	-2.54661E-01	189.00000
2.82716E+00	-2.54521E-01	190.00000
2.82668E+00	-2.54047E-01	191.00000
2.82619E+00	-2.53777E-01	192.00000
2.82568E+00	-2.53687E-01	193.00000
2.82517E+00	-2.53297E-01	194.00000
2.82469E+00	-2.52991E-01	195.00000
2.82419E+00	-2.52831E-01	196.00000
2.82367E+00	-2.52706E-01	197.00000
2.82319E+00	-2.52034E-01	198.00000
2.82272E+00	-2.51755E-01	199.00000
2.82220E+00	-2.51630E-01	200.00000
2.82169E+00	-2.51387E-01	201.00000
2.82121E+00	-2.51008E-01	202.00000
2.82071E+00	-2.50822E-01	203.00000
2.82018E+00	-2.50760E-01	204.00000
2.81969E+00	-2.50148E-01	205.00000
2.81922E+00	-2.49816E-01	206.00000
2.81871E+00	-2.49703E-01	207.00000
2.81819E+00	-2.49555E-01	208.00000
2.81771E+00	-2.48962E-01	209.00000
2.81722E+00	-2.48636E-01	210.00000
2.81670E+00	-2.48528E-01	211.00000
2.81620E+00	-2.48206E-01	212.00000
2.81572E+00	-2.47825E-01	213.00000
2.81522E+00	-2.47562E-01	214.00000
2.81470E+00	-2.47474E-01	215.00000
2.81421E+00	-2.46785E-01	216.00000
2.81373E+00	-2.46435E-01	217.00000
2.81322E+00	-2.46147E-01	218.00000
2.81271E+00	-2.45968E-01	219.00000
2.81223E+00	-2.45350E-01	220.00000
2.81173E+00	-2.44950E-01	221.00000
2.81122E+00	-2.44817E-01	222.00000
2.81072E+00	-2.44342E-01	223.00000
2.81025E+00	-2.44000E-01	224.00000
2.80974E+00	-2.43758E-01	225.00000
2.80922E+00	-2.43613E-01	226.00000
2.80874E+00	-2.42853E-01	227.00000
2.80826E+00	-2.42460E-01	228.00000
2.80774E+00	-2.42329E-01	229.00000
2.80723E+00	-2.41980E-01	230.00000
2.80676E+00	-2.41450E-01	231.00000
2.80626E+00	-2.41106E-01	232.00000
2.80574E+00	-2.40991E-01	233.00000
2.80524E+00	-2.40369E-01	234.00000
2.80477E+00	-2.40008E-01	235.00000
2.80426E+00	-2.39736E-01	236.00000
2.80374E+00	-2.39586E-01	237.00000
2.80326E+00	-2.38912E-01	238.00000
2.80277E+00	-2.38517E-01	239.00000
2.80225E+00	-2.38385E-01	240.00000
2.80174E+00	-2.37962E-01	241.00000
2.80127E+00	-2.37458E-01	242.00000
2.80077E+00	-2.37066E-01	243.00000
2.80025E+00	-2.36935E-01	244.00000
2.79976E+00	-2.36180E-01	245.00000
2.79928E+00	-2.35841E-01	246.00000
2.79876E+00	-2.35587E-01	247.00000
2.79825E+00	-2.35347E-01	248.00000
2.79778E+00	-2.34714E-01	249.00000
2.79729E+00	-2.34308E-01	250.00000
2.79677E+00	-2.34173E-01	251.00000
2.79627E+00	-2.33629E-01	252.00000
2.79579E+00	-2.33196E-01	253.00000
2.79528E+00	-2.32863E-01	254.00000
2.79476E+00	-2.32726E-01	255.00000
2.79427E+00	-2.31935E-01	256.00000
2.79379E+00	-2.31485E-01	257.00000
2.79327E+00	-2.31334E-01	258.00000
2.79276E+00	-2.30988E-01	259.00000
2.79229E+00	-2.30398E-01	260.00000
2.79179E+00	-2.29984E-01	261.00000
2.79127E+00	-2.29846E-01	262.00000
2.79077E+00	-2.29192E-01	263.00000
2.79030E+00	-2.28790E-01	264.00000
2.78978E+00	-2.28416E-01	265.00000
2.78926E+00	-2.28241E-01	266.00000
2.78878E+00	-2.27491E-01	267.00000
2.78829E+00	-2.27029E-01	268.00000
2.78778E+00	-2.26875E-01	269.00000
2.78727E+00	-2.26404E-01	270.00000
2.78680E+00	-2.25885E-01	271.00000
2.78630E+00	-2.25483E-01	272.00000
2.78578E+00	-2.25349E-01	273.00000
2.78529E+00	-2.24448E-01	274.00000
2.78482E+00	-2.23917E-01	275.00000
2.78430E+00	-2.23696E-01	276.00000
2.78379E+00	-2.23444E-01	277.00000
2.78331E+00	-2.22842E-01	278.00000
2.78282E+00	-2.22406E-01	279.00000
2.78230E+00	-2.22261E-01	280.00000
2.78180E+00	-2.21634E-01	281.00000
2.78133E+00	-2.21134E-01	282.00000
2.78083E+00	-2.20794E-01	283.00000
2.78030E+00	-2.20678E-01	284.00000
2.77981E+00	-2.19851E-01	285.00000
2.77933E+00	-2.19323E-01	286.00000
2.77881E+00	-2.19147E-01	287.00000
2.77830E+00	-2.18768E-01	288.00000
2.77783E+00	-2.18151E-01	289.00000
2.77733E+00	-2.17710E-01	290.00000
2.77681E+00	-2.17563E-01	291.00000
2.77632E+00	-2.17119E-01	292.00000
2.77581E+00	-2.16499E-01	293.00000
2.77528E+00	-2.16244E-01	294.00000
2.77480E+00	-2.15383E-01	295.00000
2.77431E+00	-2.14868E-01	296.00000
2.77380E+00	-2.14593E-01	297.00000
2.77329E+00	-2.14317E-01	298.00000
2.77281E+00	-2.13610E-01	299.00000
2.77232E+00	-2.13147E-01	300.00000
2.77180E+00	-2.12993E-01	301.00000
2.77130E+00	-2.12390E-01	302.00000
2.77083E+00	-2.11945E-01	303.00000
2.77032E+00	-2.11557E-01	304.00000
2.76980E+00	-2.11384E-01	305.00000
2.76931E+00	-2.10524E-01	306.00000
2.76883E+00	-2.09996E-01	307.00000
2.76831E+00	-2.09820E-01	308.00000
2.76780E+00	-2.09438E-01	309.00000
2.76733E+00	-2.08831E-01	310.00000
2.76684E+00	-2.08317E-01	311.00000
2.76631E+00	-2.08146E-01	312.00000
2.76583E+00	-2.07273E-01	313.00000
2.76535E+00	-2.06735E-01	314.00000
2.76484E+00	-2.06376E-01	315.00000
2.76432E+00	-2.06205E-01	316.00000
2.76384E+00	-2.05495E-01	317.00000
2.76335E+00	-2.05050E-01	318.00000
2.76283E+00	-2.04902E-01	319.00000
2.76233E+00	-2.04389E-01	320.00000
2.76186E+00	-2.03843E-01	321.00000
2.76136E+00	-2.03415E-01	322.00000
2.76083E+00	-2.03272E-01	323.00000
2.76035E+00	-2.02420E-01	324.00000
2.75986E+00	-2.01904E-01	325.00000
2.75935E+00	-2.01673E-01	326.00000
2.75884E+00	-2.01365E-01	327.00000
2.75836E+00	-2.00649E-01	328.00000
2.75787E+00	-2.00119E-01	329.00000
2.75735E+00	-1.99942E-01	330.00000
2.75686E+00	-1.99312E-01	331.00000
2.75638E+00	-1.98846E-01	332.00000
2.75587E+00	-1.98411E-01	333.00000
2.75535E+00	-1.98256E-01	334.00000
2.75487E+00	-1.97420E-01	335.00000
2.75438E+00	-1.96926E-01	336.00000
2.75386E+00	-1.96761E-01	337.00000
2.75335E+00	-1.96334E-01	338.00000
2.75287E+00	-1.95755E-01	339.00000
2.75237E+00	-1.95283E-01	340.00000
2.75186E+00	-1.95125E-01	341.00000
2.75137E+00	-1.94310E-01	342.00000
2.75089E+00	-1.93787E-01	343.00000
2.75038E+00	-1.93405E-01	344.00000
2.74986E+00	-1.93241E-01	345.00000
2.74938E+00	-1.92495E-01	346.00000
2.74889E+00	-1.91986E-01	347.00000
2.74837E+00	-1.91816E-01	348.00000
2.74787E+00	-1.91260E-01	349.00000
2.74740E+00	-1.90695E-01	350.00000
2.74689E+00	-1.90228E-01	351.00000
2.74637E+00	-1.90073E-01	352.00000
2.74588E+00	-1.89165E-01	353.00000
2.74540E+00	-1.88630E-01	354.00000
2.74488E+00	-1.88416E-01	355.00000
2.74437E+00	-1.88114E-01	356.00000
2.74390E+00	-1.87468E-01	357.00000
2.74340E+00	-1.86992E-01	358.00000
2.74288E+00	-1.86834E-01	359.00000
2.74239E+00	-1.86122E-01	360.00000
2.74191E+00	-1.85621E-01	361.00000
2.74139E+00	-1.85199E-01	362.00000
2.74087E+00	-1.85015E-01	363.00000
2.74040E+00	-1.84126E-01	364.00000
2.73991E+00	-1.83574E-01	365.00000
2.73940E+00	-1.83390E-01	366.00000
2.73889E+00	-1.82964E-01	367.00000
2.73842E+00	-1.82370E-01	368.00000
2.73792E+00	-1.81853E-01	369.00000
2.73740E+00	-1.81680E-01	370.00000
2.73691E+00	-1.80824E-01	371.00000
2.73643E+00	-1.80339E-01	372.00000
2.73591E+00	-1.80065E-01	373.00000
2.73540E+00	-1.79746E-01	374.00000
2.73492E+00	-1.78950E-01	375.00000
2.73443E+00	-1.78464E-01	376.00000
2.73392E+00	-1.78302E-01	377.00000
2.73341E+00	-1.77756E-01	378.00000
2.73294E+00	-1.77216E-01	379.00000
2.73243E+00	-1.76760E-01	380.00000
2.73191E+00	-1.76608E-01	381.00000
2.73143E+00	-1.75734E-01	382.00000
2.73094E+00	-1.75167E-01	383.00000
2.73043E+00	-1.74914E-01	384.00000
2.72992E+00	-1.74577E-01	385.00000
2.72944E+00	-1.73913E-01	386.00000
2.72895E+00	-1.73364E-01	387.00000
2.72843E+00	-1.73181E-01	388.00000
2.72793E+00	-1.72404E-01	389.00000
2.72746E+00	-1.71886E-01	390.00000
2.72695E+00	-1.71469E-01	391.00000
2.72644E+00	-1.71277E-01	392.00000
2.72596E+00	-1.70447E-01	393.00000
2.72546E+00	-1.69883E-01	394.00000
2.72495E+00	-1.69695E-01	395.00000
2.72445E+00	-1.69160E-01	396.00000
2.72398E+00	-1.68578E-01	397.00000
2.72348E+00	-1.68144E-01	398.00000
2.72295E+00	-1.67999E-01	399.00000
2.72246E+00	-1.67189E-01	400.00000
2.72198E+00	-1.66715E-01	401.00000
2.72146E+00	-1.66440E-01	402.00000
2.72094E+00	-1.66186E-01	403.00000
2.72047E+00	-1.65513E-01	404.00000
2.71997E+00	-1.65029E-01	405.00000
2.71945E+00	-1.64868E-01	406.00000
2.71896E+00	-1.64207E-01	407.00000
2.71849E+00	-1.63687E-01	408.00000
2.71798E+00	-1.63209E-01	409.00000
2.71746E+00	-1.63022E-01	410.00000
2.71697E+00	-1.62093E-01	411.00000
2.71649E+00	-1.61634E-01	412.00000
2.71597E+00	-1.61478E-01	413.00000
2.71546E+00	-1.61117E-01	414.00000
2.71499E+00	-1.60496E-01	415.00000
2.71449E+00	-1.60009E-01	416.00000
2.71397E+00	-1.59847E-01	417.00000
2.71348E+00	-1.59041E-01	418.00000
2.71300E+00	-1.58461E-01	419.00000
2.71248E+00	-1.58072E-01	420.00000
2.71197E+00	-1.57841E-01	421.00000
2.71150E+00	-1.57065E-01	422.00000
2.71101E+00	-1.56647E-01	423.00000
2.71049E+00	-1.56507E-01	424.00000
2.70998E+00	-1.55994E-01	425.00000
2.70951E+00	-1.55363E-01	426.00000
2.70900E+00	-1.54876E-01	427.00000
2.70848E+00	-1.54714E-01	428.00000
2.70800E+00	-1.53854E-01	429.00000
2.70752E+00	-1.53335E-01	430.00000
2.70701E+00	-1.53054E-01	431.00000
2.70649E+00	-1.52785E-01	432.00000
2.70601E+00	-1.52088E-01	433.00000
2.70552E+00	-1.51544E-01	434.00000
2.70501E+00	-1.51363E-01	435.00000
2.70451E+00	-1.50690E-01	436.00000
2.70403E+00	-1.50149E-01	437.00000
2.70353E+00	-1.49713E-01	438.00000
2.70301E+00	-1.49567E-01	439.00000
2.70252E+00	-1.48775E-01	440.00000
2.70204E+00	-1.48301E-01	441.00000
2.70152E+00	-1.48143E-01	442.00000
2.70101E+00	-1.47750E-01	443.00000
2.70053E+00	-1.47160E-01	444.00000
2.70003E+00	-1.46688E-01	445.00000
2.69951E+00	-1.46531E-01	446.00000
2.69902E+00	-1.45734E-01	447.00000
2.69854E+00	-1.45220E-01	448.00000
2.69803E+00	-1.44834E-01	449.00000
2.69752E+00	-1.44646E-01	450.00000
2.69704E+00	-1.43903E-01	451.00000
2.69655E+00	-1.43440E-01	452.00000
2.69602E+00	-1.43285E-01	453.00000
2.69552E+00	-1.42734E-01	454.00000
2.69505E+00	-1.42183E-01	455.00000
2.69455E+00	-1.41746E-01	456.00000
2.69403E+00	-1.41601E-01	457.00000
2.69354E+00	-1.40697E-01	458.00000
2.69306E+00	-1.40189E-01	459.00000
2.69254E+00	-1.39984E-01	460.00000
2.69203E+00	-1.39683E-01	461.00000
2.69155E+00	-1.39112E-01	462.00000
2.69106E+00	-1.38677E-01	463.00000
2.69054E+00	-1.38532E-01	464.00000
2.69004E+00	-1.37809E-01	465.00000
2.68957E+00	-1.37329E-01	466.00000
2.68906E+00	-1.36950E-01	467.00000
2.68854E+00	-1.36791E-01	468.00000
2.68807E+00	-1.35947E-01	469.00000
2.68759E+00	-1.35397E-01	470.00000
2.68707E+00	-1.35213E-01	471.00000
2.68656E+00	-1.34792E-01	472.00000
2.68609E+00	-1.34255E-01	473.00000
2.68559E+00	-1.33882E-01	474.00000
2.68507E+00	-1.33757E-01	475.00000
2.68458E+00	-1.32990E-01	476.00000
2.68410E+00	-1.32501E-01	477.00000
2.68358E+00	-1.32198E-01	478.00000
2.68307E+00	-1.31974E-01	479.00000
2.68259E+00	-1.31331E-01	480.00000
2.68209E+00	-1.30905E-01	481.00000
2.68157E+00	-1.30763E-01	482.00000
2.68108E+00	-1.30191E-01	483.00000
2.68060E+00	-1.29694E-01	484.00000
2.68010E+00	-1.29293E-01	485.00000
2.67958E+00	-1.29160E-01	486.00000
2.67909E+00	-1.28327E-01	487.00000
2.67861E+00	-1.27877E-01	488.00000
2.67809E+00	-1.27700E-01	489.00000
2.67758E+00	-1.27427E-01	490.00000
2.67710E+00	-1.26918E-01	491.00000
2.67660E+00	-1.26501E-01	492.00000
2.67608E+00	-1.26362E-01	493.00000
2.67559E+00	-1.25675E-01	494.00000
2.67512E+00	-1.25267E-01	495.00000
2.67461E+00	-1.24897E-01	496.00000
2.67409E+00	-1.24721E-01	497.00000
2.67361E+00	-1.24014E-01	498.00000
2.67313E+00	-1.23683E-01	499.00000
2.67260E+00	-1.23572E-01	500.00000
2.67209E+00	-1.23214E-01	501.00000
2.67162E+00	-1.22720E-01	502.00000
2.67111E+00	-1.22304E-01	503.00000
2.67060E+00	-1.22166E-01	504.00000
2.67011E+00	-1.21384E-01	505.00000
2.66963E+00	-1.21007E-01	506.00000
2.66912E+00	-1.20790E-01	507.00000
2.66861E+00	-1.20548E-01	508.00000
2.66813E+00	-1.20001E-01	509.00000
2.66763E+00	-1.19662E-01	510.00000
2.66711E+00	-1.19550E-01	511.00000
2.66662E+00	-1.18977E-01	512.00000
2.66614E+00	-1.18542E-01	513.00000
2.66564E+00	-1.18182E-01	514.00000
2.66512E+00	-1.18027E-01	515.00000
2.66464E+00	-1.17220E-01	516.00000
2.66415E+00	-1.16879E-01	517.00000
2.66363E+00	-1.16762E-01	518.00000
2.66312E+00	-1.16452E-01	519.00000
2.66265E+00	-1.16039E-01	520.00000
2.66215E+00	-1.15761E-01	521.00000
2.66163E+00	-1.15669E-01	522.00000
2.66113E+00	-1.14958E-01	523.00000
2.66066E+00	-1.14545E-01	524.00000
2.66015E+00	-1.14272E-01	525.00000
2.65963E+00	-1.14108E-01	526.00000
2.65915E+00	-1.13520E-01	527.00000
2.65866E+00	-1.13239E-01	528.00000
2.65814E+00	-1.13146E-01	529.00000
2.65763E+00	-1.12773E-01	530.00000
2.65716E+00	-1.12342E-01	531.00000
2.65666E+00	-1.11999E-01	532.00000
2.65614E+00	-1.11885E-01	533.00000
2.65566E+00	-1.11116E-01	534.00000
2.65518E+00	-1.10775E-01	535.00000
2.65466E+00	-1.10635E-01	536.00000
2.65414E+00	-1.10357E-01	537.00000
2.65367E+00	-1.09904E-01	538.00000
2.65317E+00	-1.09668E-01	539.00000
2.65265E+00	-1.09590E-01	540.00000
2.65215E+00	-1.09051E-01	541.00000
2.65167E+00	-1.08699E-01	542.00000
2.65117E+00	-1.08438E-01	543.00000
2.65065E+00	-1.08288E-01	544.00000
2.65017E+00	-1.07594E-01	545.00000
2.64968E+00	-1.07272E-01	546.00000
2.64917E+00	-1.07164E-01	547.00000
2.64866E+00	-1.06840E-01	548.00000
2.64819E+00	-1.06481E-01	549.00000
2.64769E+00	-1.06253E-01	550.00000
2.64717E+00	-1.06165E-01	551.00000
2.64667E+00	-1.05544E-01	552.00000
2.64620E+00	-1.05257E-01	553.00000
2.64569E+00	-1.05014E-01	554.00000
2.64517E+00	-1.04845E-01	555.00000
2.64469E+00	-1.04380E-01	556.00000
2.64420E+00	-1.04205E-01	557.00000
2.64368E+00	-1.04147E-01	558.00000
2.64317E+00	-1.03720E-01	559.00000
2.64270E+00	-1.03342E-01	560.00000
2.64219E+00	-1.03109E-01	561.00000
2.64168E+00	-1.02980E-01	562.00000
2.64119E+00	-1.02253E-01	563.00000
2.64071E+00	-1.01927E-01	564.00000
2.64020E+00	-1.01798E-01	565.00000
2.63969E+00	-1.01563E-01	566.00000
2.63921E+00	-1.01232E-01	567.00000
2.63871E+00	-1.01086E-01	568.00000
2.63819E+00	-1.01037E-01	569.00000
2.63769E+00	-1.00490E-01	570.00000
2.63722E+00	-1.00152E-01	571.00000
2.63671E+00	-9.99167E-02	572.00000
2.63619E+00	-9.97581E-02	573.00000
