E(V)	i(A/cm²)	T(s)
2.97370E+00	-1.45047E-01	0.00000
2.97346E+00	-1.46090E-01	1.00000
2.97295E+00	-1.50055E-01	2.00000
2.97248E+00	-1.53115E-01	3.00000
2.97197E+00	-1.57040E-01	4.00000
2.97145E+00	-1.61369E-01	5.00000
2.97097E+00	-1.64739E-01	6.00000
2.97048E+00	-1.67928E-01	7.00000
2.96997E+00	-1.72024E-01	8.00000
2.96945E+00	-1.76043E-01	9.00000
2.96897E+00	-1.78980E-01	10.00000
2.96848E+00	-1.82410E-01	11.00000
2.96796E+00	-1.86356E-01	12.00000
2.96747E+00	-1.89476E-01	13.00000
2.96700E+00	-1.92055E-01	14.00000
2.96648E+00	-1.95588E-01	15.00000
2.96596E+00	-1.99290E-01	16.00000
2.96548E+00	-2.01879E-01	17.00000
2.96499E+00	-2.04625E-01	18.00000
2.96448E+00	-2.08107E-01	19.00000
2.96397E+00	-2.11174E-01	20.00000
2.96349E+00	-2.13434E-01	21.00000
2.96299E+00	-2.16292E-01	22.00000
2.96247E+00	-2.19576E-01	23.00000
2.96198E+00	-2.21989E-01	24.00000
2.96150E+00	-2.24015E-01	25.00000
2.96099E+00	-2.26989E-01	26.00000
2.96047E+00	-2.29931E-01	27.00000
2.96000E+00	-2.31810E-01	28.00000
2.95951E+00	-2.34050E-01	29.00000
2.95899E+00	-2.36976E-01	30.00000
2.95849E+00	-2.39370E-01	31.00000
2.95801E+00	-2.41003E-01	32.00000
2.95750E+00	-2.43494E-01	33.00000
2.95698E+00	-2.46314E-01	34.00000
2.95650E+00	-2.48074E-01	35.00000
2.95602E+00	-2.49691E-01	36.00000
2.95550E+00	-2.52240E-01	37.00000
2.95499E+00	-2.54688E-01	38.00000
2.95451E+00	-2.56100E-01	39.00000
2.95401E+00	-2.58026E-01	40.00000
2.95349E+00	-2.60414E-01	41.00000
2.95300E+00	-2.62018E-01	42.00000
2.95253E+00	-2.63219E-01	43.00000
2.95201E+00	-2.65369E-01	44.00000
2.95149E+00	-2.67623E-01	45.00000
2.95102E+00	-2.68716E-01	46.00000
2.95053E+00	-2.70052E-01	47.00000
2.95001E+00	-2.72346E-01	48.00000
2.94950E+00	-2.74166E-01	49.00000
2.94903E+00	-2.75096E-01	50.00000
2.94852E+00	-2.76809E-01	51.00000
2.94800E+00	-2.78868E-01	52.00000
2.94751E+00	-2.80073E-01	53.00000
2.94703E+00	-2.81010E-01	54.00000
2.94652E+00	-2.82848E-01	55.00000
2.94600E+00	-2.84749E-01	56.00000
2.94552E+00	-2.85597E-01	57.00000
2.94503E+00	-2.86810E-01	58.00000
2.94451E+00	-2.88709E-01	59.00000
2.94401E+00	-2.90046E-01	60.00000
2.94354E+00	-2.90641E-01	61.00000
2.94304E+00	-2.92078E-01	62.00000
2.94252E+00	-2.93803E-01	63.00000
2.94203E+00	-2.94574E-01	64.00000
2.94155E+00	-2.95339E-01	65.00000
2.94103E+00	-2.96900E-01	66.00000
2.94053E+00	-2.98319E-01	67.00000
2.94005E+00	-2.98837E-01	68.00000
2.93955E+00	-2.99976E-01	69.00000
2.93903E+00	-3.01587E-01	70.00000
2.93853E+00	-3.02512E-01	71.00000
2.93806E+00	-3.02911E-01	72.00000
2.93755E+00	-3.04242E-01	73.00000
2.93703E+00	-3.05685E-01	74.00000
2.93655E+00	-3.06166E-01	75.00000
2.93606E+00	-3.06858E-01	76.00000
2.93554E+00	-3.08248E-01	77.00000
2.93504E+00	-3.09331E-01	78.00000
2.93456E+00	-3.09692E-01	79.00000
2.93406E+00	-3.10744E-01	80.00000
2.93354E+00	-3.12082E-01	81.00000
2.93305E+00	-3.12652E-01	82.00000
2.93257E+00	-3.12970E-01	83.00000
2.93206E+00	-3.13979E-01	84.00000
2.93155E+00	-3.14982E-01	85.00000
2.93107E+00	-3.15316E-01	86.00000
2.93057E+00	-3.16119E-01	87.00000
2.93005E+00	-3.17342E-01	88.00000
2.92955E+00	-3.17881E-01	89.00000
2.92907E+00	-3.18061E-01	90.00000
2.92857E+00	-3.18961E-01	91.00000
2.92804E+00	-3.20024E-01	92.00000
2.92756E+00	-3.20379E-01	93.00000
2.92708E+00	-3.20645E-01	94.00000
2.92657E+00	-3.21617E-01	95.00000
2.92605E+00	-3.22359E-01	96.00000
2.92557E+00	-3.22607E-01	97.00000
2.92507E+00	-3.23317E-01	98.00000
2.92455E+00	-3.24214E-01	99.00000
2.92406E+00	-3.24416E-01	100.00000
2.92359E+00	-3.24483E-01	101.00000
2.92307E+00	-3.25260E-01	102.00000
2.92255E+00	-3.26062E-01	103.00000
2.92207E+00	-3.26330E-01	104.00000
2.92159E+00	-3.26495E-01	105.00000
2.92108E+00	-3.27150E-01	106.00000
2.92057E+00	-3.27565E-01	107.00000
2.92010E+00	-3.27704E-01	108.00000
2.91959E+00	-3.28380E-01	109.00000
2.91908E+00	-3.29093E-01	110.00000
2.91859E+00	-3.29156E-01	111.00000
2.91811E+00	-3.29192E-01	112.00000
2.91760E+00	-3.29761E-01	113.00000
2.91709E+00	-3.30293E-01	114.00000
2.91661E+00	-3.30470E-01	115.00000
2.91611E+00	-3.30937E-01	116.00000
2.91558E+00	-3.31621E-01	117.00000
2.91508E+00	-3.31696E-01	118.00000
2.91461E+00	-3.31752E-01	119.00000
2.91410E+00	-3.32234E-01	120.00000
2.91358E+00	-3.32635E-01	121.00000
2.91310E+00	-3.32697E-01	122.00000
2.91261E+00	-3.32790E-01	123.00000
2.91210E+00	-3.33217E-01	124.00000
2.91159E+00	-3.33359E-01	125.00000
2.91111E+00	-3.33466E-01	126.00000
2.91061E+00	-3.34016E-01	127.00000
2.91008E+00	-3.34486E-01	128.00000
2.90959E+00	-3.34240E-01	129.00000
2.90912E+00	-3.34314E-01	130.00000
2.90861E+00	-3.34593E-01	131.00000
2.90810E+00	-3.34718E-01	132.00000
2.90762E+00	-3.34845E-01	133.00000
2.90713E+00	-3.35009E-01	134.00000
2.90661E+00	-3.35376E-01	135.00000
2.90610E+00	-3.35347E-01	136.00000
2.90563E+00	-3.35459E-01	137.00000
2.90512E+00	-3.35742E-01	138.00000
2.90460E+00	-3.35874E-01	139.00000
2.90412E+00	-3.35696E-01	140.00000
2.90364E+00	-3.35681E-01	141.00000
2.90312E+00	-3.35912E-01	142.00000
2.90261E+00	-3.35984E-01	143.00000
2.90213E+00	-3.36086E-01	144.00000
2.90164E+00	-3.36332E-01	145.00000
2.90112E+00	-3.36452E-01	146.00000
2.90062E+00	-3.36293E-01	147.00000
2.90015E+00	-3.36280E-01	148.00000
2.89964E+00	-3.36463E-01	149.00000
2.89912E+00	-3.36520E-01	150.00000
2.89864E+00	-3.36384E-01	151.00000
2.89816E+00	-3.36357E-01	152.00000
2.89764E+00	-3.36367E-01	153.00000
2.89713E+00	-3.36361E-01	154.00000
2.89665E+00	-3.36363E-01	155.00000
2.89615E+00	-3.36521E-01	156.00000
2.89563E+00	-3.36574E-01	157.00000
2.89513E+00	-3.36266E-01	158.00000
2.89466E+00	-3.36181E-01	159.00000
2.89415E+00	-3.36181E-01	160.00000
2.89363E+00	-3.36153E-01	161.00000
2.89315E+00	-3.36064E-01	162.00000
2.89266E+00	-3.36053E-01	163.00000
2.89214E+00	-3.36020E-01	164.00000
2.89164E+00	-3.35789E-01	165.00000
2.89117E+00	-3.35701E-01	166.00000
2.89066E+00	-3.35690E-01	167.00000
2.89014E+00	-3.35657E-01	168.00000
2.88966E+00	-3.35226E-01	169.00000
2.88917E+00	-3.35108E-01	170.00000
2.88866E+00	-3.34962E-01	171.00000
2.88815E+00	-3.34873E-01	172.00000
2.88767E+00	-3.34795E-01	173.00000
2.88717E+00	-3.34855E-01	174.00000
2.88665E+00	-3.34849E-01	175.00000
2.88615E+00	-3.34441E-01	176.00000
2.88568E+00	-3.34244E-01	177.00000
2.88517E+00	-3.34053E-01	178.00000
2.88465E+00	-3.33923E-01	179.00000
2.88417E+00	-3.33363E-01	180.00000
2.88368E+00	-3.33216E-01	181.00000
2.88317E+00	-3.33090E-01	182.00000
2.88266E+00	-3.32811E-01	183.00000
2.88219E+00	-3.32564E-01	184.00000
2.88169E+00	-3.32549E-01	185.00000
2.88117E+00	-3.32481E-01	186.00000
2.88067E+00	-3.31918E-01	187.00000
2.88020E+00	-3.31639E-01	188.00000
2.87969E+00	-3.31472E-01	189.00000
2.87918E+00	-3.31323E-01	190.00000
2.87870E+00	-3.30873E-01	191.00000
2.87820E+00	-3.30741E-01	192.00000
2.87769E+00	-3.30685E-01	193.00000
2.87718E+00	-3.30322E-01	194.00000
2.87671E+00	-3.30109E-01	195.00000
2.87620E+00	-3.29899E-01	196.00000
2.87568E+00	-3.29758E-01	197.00000
2.87520E+00	-3.28973E-01	198.00000
2.87472E+00	-3.28640E-01	199.00000
2.87420E+00	-3.28463E-01	200.00000
2.87369E+00	-3.28230E-01	201.00000
2.87321E+00	-3.27830E-01	202.00000
2.87272E+00	-3.27656E-01	203.00000
2.87220E+00	-3.27598E-01	204.00000
2.87169E+00	-3.27087E-01	205.00000
2.87121E+00	-3.26736E-01	206.00000
2.87070E+00	-3.26395E-01	207.00000
2.87019E+00	-3.26219E-01	208.00000
2.86971E+00	-3.25509E-01	209.00000
2.86922E+00	-3.25228E-01	210.00000
2.86870E+00	-3.25134E-01	211.00000
2.86820E+00	-3.24715E-01	212.00000
2.86773E+00	-3.24346E-01	213.00000
2.86722E+00	-3.24223E-01	214.00000
2.86670E+00	-3.24118E-01	215.00000
2.86621E+00	-3.23364E-01	216.00000
2.86573E+00	-3.22870E-01	217.00000
2.86522E+00	-3.22558E-01	218.00000
2.86471E+00	-3.22392E-01	219.00000
2.86423E+00	-3.21802E-01	220.00000
2.86373E+00	-3.21409E-01	221.00000
2.86322E+00	-3.21278E-01	222.00000
2.86272E+00	-3.20652E-01	223.00000
2.86225E+00	-3.20207E-01	224.00000
2.86174E+00	-3.19958E-01	225.00000
2.86121E+00	-3.19794E-01	226.00000
2.86073E+00	-3.18886E-01	227.00000
2.86025E+00	-3.18380E-01	228.00000
2.85973E+00	-3.18211E-01	229.00000
2.85922E+00	-3.17900E-01	230.00000
2.85875E+00	-3.17377E-01	231.00000
2.85825E+00	-3.17039E-01	232.00000
2.85773E+00	-3.16926E-01	233.00000
2.85724E+00	-3.16204E-01	234.00000
2.85676E+00	-3.15775E-01	235.00000
2.85625E+00	-3.15404E-01	236.00000
2.85573E+00	-3.15184E-01	237.00000
2.85525E+00	-3.14293E-01	238.00000
2.85476E+00	-3.13809E-01	239.00000
2.85425E+00	-3.13647E-01	240.00000
2.85374E+00	-3.13236E-01	241.00000
2.85327E+00	-3.12768E-01	242.00000
2.85276E+00	-3.12500E-01	243.00000
2.85224E+00	-3.12394E-01	244.00000
2.85175E+00	-3.11505E-01	245.00000
2.85127E+00	-3.10956E-01	246.00000
2.85075E+00	-3.10648E-01	247.00000
2.85024E+00	-3.10391E-01	248.00000
2.84976E+00	-3.09651E-01	249.00000
2.84927E+00	-3.09148E-01	250.00000
2.84875E+00	-3.08981E-01	251.00000
2.84825E+00	-3.08410E-01	252.00000
2.84777E+00	-3.07942E-01	253.00000
2.84727E+00	-3.07526E-01	254.00000
2.84675E+00	-3.07378E-01	255.00000
2.84627E+00	-3.06359E-01	256.00000
2.84578E+00	-3.05740E-01	257.00000
2.84527E+00	-3.05534E-01	258.00000
2.84476E+00	-3.05177E-01	259.00000
2.84428E+00	-3.04443E-01	260.00000
2.84378E+00	-3.03819E-01	261.00000
2.84327E+00	-3.03611E-01	262.00000
2.84278E+00	-3.02858E-01	263.00000
2.84230E+00	-3.02426E-01	264.00000
2.84179E+00	-3.01988E-01	265.00000
2.84127E+00	-3.01779E-01	266.00000
2.84080E+00	-3.00877E-01	267.00000
2.84031E+00	-3.00372E-01	268.00000
2.83979E+00	-3.00204E-01	269.00000
2.83928E+00	-2.99704E-01	270.00000
2.83881E+00	-2.99139E-01	271.00000
2.83830E+00	-2.98702E-01	272.00000
2.83778E+00	-2.98556E-01	273.00000
2.83729E+00	-2.97604E-01	274.00000
2.83682E+00	-2.96998E-01	275.00000
2.83631E+00	-2.96577E-01	276.00000
2.83579E+00	-2.96317E-01	277.00000
2.83532E+00	-2.95527E-01	278.00000
2.83482E+00	-2.94986E-01	279.00000
2.83430E+00	-2.94805E-01	280.00000
2.83380E+00	-2.94105E-01	281.00000
2.83333E+00	-2.93564E-01	282.00000
2.83282E+00	-2.93086E-01	283.00000
2.83230E+00	-2.92908E-01	284.00000
2.83182E+00	-2.91858E-01	285.00000
2.83133E+00	-2.91276E-01	286.00000
2.83082E+00	-2.91033E-01	287.00000
2.83030E+00	-2.90630E-01	288.00000
2.82983E+00	-2.89879E-01	289.00000
2.82933E+00	-2.89378E-01	290.00000
2.82881E+00	-2.89212E-01	291.00000
2.82832E+00	-2.88400E-01	292.00000
2.82784E+00	-2.87530E-01	293.00000
2.82732E+00	-2.86980E-01	294.00000
2.82681E+00	-2.86438E-01	295.00000
2.82632E+00	-2.85969E-01	296.00000
2.82580E+00	-2.85681E-01	297.00000
2.82528E+00	-2.85324E-01	298.00000
2.82481E+00	-2.84443E-01	299.00000
2.82432E+00	-2.83837E-01	300.00000
2.82380E+00	-2.83635E-01	301.00000
2.82330E+00	-2.82967E-01	302.00000
2.82283E+00	-2.82438E-01	303.00000
2.82232E+00	-2.81874E-01	304.00000
2.82180E+00	-2.81678E-01	305.00000
2.82132E+00	-2.80557E-01	306.00000
2.82084E+00	-2.79984E-01	307.00000
2.82032E+00	-2.79793E-01	308.00000
2.81981E+00	-2.79372E-01	309.00000
2.81933E+00	-2.78654E-01	310.00000
2.81883E+00	-2.78146E-01	311.00000
2.81831E+00	-2.77976E-01	312.00000
2.81782E+00	-2.77113E-01	313.00000
2.81734E+00	-2.76413E-01	314.00000
2.81683E+00	-2.75896E-01	315.00000
2.81632E+00	-2.75677E-01	316.00000
2.81584E+00	-2.74773E-01	317.00000
2.81535E+00	-2.74168E-01	318.00000
2.81483E+00	-2.73966E-01	319.00000
2.81433E+00	-2.73411E-01	320.00000
2.81385E+00	-2.72786E-01	321.00000
2.81335E+00	-2.72211E-01	322.00000
2.81283E+00	-2.72019E-01	323.00000
2.81234E+00	-2.71057E-01	324.00000
2.81186E+00	-2.70468E-01	325.00000
2.81134E+00	-2.70072E-01	326.00000
2.81083E+00	-2.69740E-01	327.00000
2.81036E+00	-2.68913E-01	328.00000
2.80986E+00	-2.68362E-01	329.00000
2.80934E+00	-2.68179E-01	330.00000
2.80884E+00	-2.67457E-01	331.00000
2.80836E+00	-2.66853E-01	332.00000
2.80785E+00	-2.66249E-01	333.00000
2.80734E+00	-2.66038E-01	334.00000
2.80685E+00	-2.64930E-01	335.00000
2.80637E+00	-2.64293E-01	336.00000
2.80585E+00	-2.64081E-01	337.00000
2.80534E+00	-2.63658E-01	338.00000
2.80487E+00	-2.62935E-01	339.00000
2.80437E+00	-2.62330E-01	340.00000
2.80385E+00	-2.62129E-01	341.00000
2.80336E+00	-2.61194E-01	342.00000
2.80288E+00	-2.60535E-01	343.00000
2.80237E+00	-2.60079E-01	344.00000
2.80186E+00	-2.59807E-01	345.00000
2.80137E+00	-2.58924E-01	346.00000
2.80088E+00	-2.58311E-01	347.00000
2.80036E+00	-2.58106E-01	348.00000
2.79986E+00	-2.57440E-01	349.00000
2.79939E+00	-2.56830E-01	350.00000
2.79888E+00	-2.56350E-01	351.00000
2.79836E+00	-2.56190E-01	352.00000
2.79787E+00	-2.55157E-01	353.00000
2.79739E+00	-2.54417E-01	354.00000
2.79688E+00	-2.54026E-01	355.00000
2.79637E+00	-2.53661E-01	356.00000
2.79589E+00	-2.52856E-01	357.00000
2.79539E+00	-2.52311E-01	358.00000
2.79487E+00	-2.52129E-01	359.00000
2.79437E+00	-2.51433E-01	360.00000
2.79390E+00	-2.50871E-01	361.00000
2.79339E+00	-2.50336E-01	362.00000
2.79287E+00	-2.50157E-01	363.00000
2.79240E+00	-2.49111E-01	364.00000
2.79191E+00	-2.48419E-01	365.00000
2.79139E+00	-2.48189E-01	366.00000
2.79089E+00	-2.47660E-01	367.00000
2.79041E+00	-2.46991E-01	368.00000
2.78990E+00	-2.46500E-01	369.00000
2.78937E+00	-2.46336E-01	370.00000
2.78888E+00	-2.45403E-01	371.00000
2.78841E+00	-2.44749E-01	372.00000
2.78790E+00	-2.44291E-01	373.00000
2.78738E+00	-2.44017E-01	374.00000
2.78690E+00	-2.43127E-01	375.00000
2.78641E+00	-2.42494E-01	376.00000
2.78590E+00	-2.42283E-01	377.00000
2.78540E+00	-2.41530E-01	378.00000
2.78493E+00	-2.40916E-01	379.00000
2.78442E+00	-2.40420E-01	380.00000
2.78390E+00	-2.40232E-01	381.00000
2.78342E+00	-2.39189E-01	382.00000
2.78294E+00	-2.38546E-01	383.00000
2.78242E+00	-2.38251E-01	384.00000
2.78191E+00	-2.37902E-01	385.00000
2.78143E+00	-2.37177E-01	386.00000
2.78093E+00	-2.36644E-01	387.00000
2.78041E+00	-2.36466E-01	388.00000
2.77992E+00	-2.35652E-01	389.00000
2.77944E+00	-2.35068E-01	390.00000
2.77893E+00	-2.34617E-01	391.00000
2.77841E+00	-2.34383E-01	392.00000
2.77793E+00	-2.33346E-01	393.00000
2.77745E+00	-2.32657E-01	394.00000
2.77693E+00	-2.32428E-01	395.00000
2.77643E+00	-2.31916E-01	396.00000
2.77595E+00	-2.31237E-01	397.00000
2.77545E+00	-2.30664E-01	398.00000
2.77493E+00	-2.30472E-01	399.00000
2.77444E+00	-2.29493E-01	400.00000
2.77396E+00	-2.28858E-01	401.00000
2.77344E+00	-2.28524E-01	402.00000
2.77293E+00	-2.28189E-01	403.00000
2.77245E+00	-2.27350E-01	404.00000
2.77196E+00	-2.26814E-01	405.00000
2.77144E+00	-2.26636E-01	406.00000
2.77094E+00	-2.25930E-01	407.00000
2.77047E+00	-2.25299E-01	408.00000
2.76996E+00	-2.24796E-01	409.00000
2.76944E+00	-2.24628E-01	410.00000
2.76895E+00	-2.23596E-01	411.00000
2.76846E+00	-2.22865E-01	412.00000
2.76795E+00	-2.22573E-01	413.00000
2.76745E+00	-2.22093E-01	414.00000
2.76697E+00	-2.21346E-01	415.00000
2.76647E+00	-2.20813E-01	416.00000
2.76595E+00	-2.20635E-01	417.00000
2.76546E+00	-2.19736E-01	418.00000
2.76499E+00	-2.19108E-01	419.00000
2.76448E+00	-2.18656E-01	420.00000
2.76396E+00	-2.18484E-01	421.00000
2.76348E+00	-2.17537E-01	422.00000
2.76300E+00	-2.16905E-01	423.00000
2.76248E+00	-2.16694E-01	424.00000
2.76197E+00	-2.16169E-01	425.00000
2.76150E+00	-2.15515E-01	426.00000
2.76099E+00	-2.14978E-01	427.00000
2.76047E+00	-2.14799E-01	428.00000
2.75999E+00	-2.13904E-01	429.00000
2.75950E+00	-2.13337E-01	430.00000
2.75899E+00	-2.12979E-01	431.00000
2.75848E+00	-2.12664E-01	432.00000
2.75800E+00	-2.11875E-01	433.00000
2.75751E+00	-2.11334E-01	434.00000
2.75698E+00	-2.11153E-01	435.00000
2.75649E+00	-2.10399E-01	436.00000
2.75601E+00	-2.09816E-01	437.00000
2.75550E+00	-2.09341E-01	438.00000
2.75498E+00	-2.09164E-01	439.00000
2.75450E+00	-2.08128E-01	440.00000
2.75401E+00	-2.07483E-01	441.00000
2.75350E+00	-2.07263E-01	442.00000
2.75299E+00	-2.06851E-01	443.00000
2.75252E+00	-2.06151E-01	444.00000
2.75202E+00	-2.05632E-01	445.00000
2.75150E+00	-2.05460E-01	446.00000
2.75100E+00	-2.04612E-01	447.00000
2.75052E+00	-2.04037E-01	448.00000
2.75001E+00	-2.03625E-01	449.00000
2.74949E+00	-2.03366E-01	450.00000
2.74901E+00	-2.02390E-01	451.00000
2.74852E+00	-2.01726E-01	452.00000
2.74801E+00	-2.01505E-01	453.00000
2.74751E+00	-2.00889E-01	454.00000
2.74704E+00	-2.00216E-01	455.00000
2.74653E+00	-1.99679E-01	456.00000
2.74601E+00	-1.99500E-01	457.00000
2.74553E+00	-1.98536E-01	458.00000
2.74505E+00	-1.97960E-01	459.00000
2.74453E+00	-1.97644E-01	460.00000
2.74402E+00	-1.97330E-01	461.00000
2.74354E+00	-1.96556E-01	462.00000
2.74305E+00	-1.95973E-01	463.00000
2.74253E+00	-1.95779E-01	464.00000
2.74203E+00	-1.95074E-01	465.00000
2.74156E+00	-1.94528E-01	466.00000
2.74105E+00	-1.94070E-01	467.00000
2.74053E+00	-1.93918E-01	468.00000
2.74004E+00	-1.93000E-01	469.00000
2.73956E+00	-1.92346E-01	470.00000
2.73904E+00	-1.92128E-01	471.00000
2.73854E+00	-1.91600E-01	472.00000
2.73806E+00	-1.90934E-01	473.00000
2.73756E+00	-1.90420E-01	474.00000
2.73704E+00	-1.90248E-01	475.00000
2.73655E+00	-1.89340E-01	476.00000
2.73607E+00	-1.88774E-01	477.00000
2.73556E+00	-1.88344E-01	478.00000
2.73504E+00	-1.88154E-01	479.00000
2.73456E+00	-1.87314E-01	480.00000
2.73407E+00	-1.86715E-01	481.00000
2.73356E+00	-1.86515E-01	482.00000
2.73305E+00	-1.85902E-01	483.00000
2.73258E+00	-1.85341E-01	484.00000
2.73207E+00	-1.84861E-01	485.00000
2.73155E+00	-1.84701E-01	486.00000
2.73106E+00	-1.83673E-01	487.00000
2.73059E+00	-1.82995E-01	488.00000
2.73007E+00	-1.82674E-01	489.00000
2.72956E+00	-1.82315E-01	490.00000
2.72909E+00	-1.81595E-01	491.00000
2.72859E+00	-1.81033E-01	492.00000
2.72807E+00	-1.80845E-01	493.00000
2.72758E+00	-1.80040E-01	494.00000
2.72711E+00	-1.79507E-01	495.00000
2.72660E+00	-1.79038E-01	496.00000
2.72608E+00	-1.78855E-01	497.00000
2.72560E+00	-1.77896E-01	498.00000
2.72511E+00	-1.77332E-01	499.00000
2.72459E+00	-1.77144E-01	500.00000
2.72409E+00	-1.76690E-01	501.00000
2.72361E+00	-1.76067E-01	502.00000
2.72311E+00	-1.75528E-01	503.00000
2.72259E+00	-1.75348E-01	504.00000
2.72210E+00	-1.74394E-01	505.00000
2.72162E+00	-1.73832E-01	506.00000
2.72110E+00	-1.73500E-01	507.00000
2.72059E+00	-1.73233E-01	508.00000
2.72010E+00	-1.72394E-01	509.00000
2.71961E+00	-1.71816E-01	510.00000
2.71910E+00	-1.71623E-01	511.00000
2.71860E+00	-1.71026E-01	512.00000
2.71812E+00	-1.70451E-01	513.00000
2.71762E+00	-1.69912E-01	514.00000
2.71710E+00	-1.69733E-01	515.00000
2.71661E+00	-1.68711E-01	516.00000
2.71613E+00	-1.68177E-01	517.00000
2.71561E+00	-1.67999E-01	518.00000
2.71510E+00	-1.67641E-01	519.00000
2.71462E+00	-1.66952E-01	520.00000
2.71413E+00	-1.66403E-01	521.00000
2.71361E+00	-1.66220E-01	522.00000
2.71312E+00	-1.65424E-01	523.00000
2.71264E+00	-1.64923E-01	524.00000
2.71213E+00	-1.64512E-01	525.00000
2.71161E+00	-1.64323E-01	526.00000
2.71113E+00	-1.63426E-01	527.00000
2.71064E+00	-1.62844E-01	528.00000
2.71012E+00	-1.62650E-01	529.00000
2.70962E+00	-1.62110E-01	530.00000
2.70914E+00	-1.61501E-01	531.00000
2.70864E+00	-1.61022E-01	532.00000
2.70812E+00	-1.60862E-01	533.00000
2.70763E+00	-1.59905E-01	534.00000
2.70716E+00	-1.59344E-01	535.00000
2.70664E+00	-1.59006E-01	536.00000
2.70613E+00	-1.58725E-01	537.00000
2.70566E+00	-1.57958E-01	538.00000
2.70516E+00	-1.57427E-01	539.00000
2.70464E+00	-1.57250E-01	540.00000
2.70415E+00	-1.56543E-01	541.00000
2.70367E+00	-1.56032E-01	542.00000
2.70317E+00	-1.55598E-01	543.00000
2.70264E+00	-1.55407E-01	544.00000
2.70216E+00	-1.54486E-01	545.00000
2.70167E+00	-1.54040E-01	546.00000
2.70115E+00	-1.53891E-01	547.00000
2.70064E+00	-1.53483E-01	548.00000
2.70017E+00	-1.52803E-01	549.00000
2.69968E+00	-1.52292E-01	550.00000
2.69915E+00	-1.52121E-01	551.00000
2.69866E+00	-1.51318E-01	552.00000
2.69818E+00	-1.50787E-01	553.00000
2.69768E+00	-1.50377E-01	554.00000
2.69716E+00	-1.50176E-01	555.00000
2.69668E+00	-1.49351E-01	556.00000
2.69619E+00	-1.48839E-01	557.00000
2.69567E+00	-1.48669E-01	558.00000
2.69517E+00	-1.48128E-01	559.00000
2.69470E+00	-1.47541E-01	560.00000
2.69420E+00	-1.47082E-01	561.00000
2.69367E+00	-1.46929E-01	562.00000
2.69319E+00	-1.45991E-01	563.00000
2.69271E+00	-1.45526E-01	564.00000
2.69219E+00	-1.45289E-01	565.00000
2.69168E+00	-1.44996E-01	566.00000
2.69120E+00	-1.44379E-01	567.00000
2.69070E+00	-1.43930E-01	568.00000
2.69019E+00	-1.43780E-01	569.00000
2.68969E+00	-1.43083E-01	570.00000
2.68922E+00	-1.42572E-01	571.00000
2.68871E+00	-1.42149E-01	572.00000
2.68819E+00	-1.41997E-01	573.00000
