E(V)	i(A/cm²)	T(s)
3.04698E+00	-1.67262E-01	0.00000
3.04673E+00	-1.68308E-01	1.00000
3.04622E+00	-1.72487E-01	2.00000
3.04574E+00	-1.75714E-01	3.00000
3.04524E+00	-1.79876E-01	4.00000
3.04472E+00	-1.84539E-01	5.00000
3.04423E+00	-1.88163E-01	6.00000
3.04376E+00	-1.91601E-01	7.00000
3.04324E+00	-1.96080E-01	8.00000
3.04272E+00	-2.00450E-01	9.00000
3.04225E+00	-2.03741E-01	10.00000
3.04175E+00	-2.07544E-01	11.00000
3.04123E+00	-2.11943E-01	12.00000
3.04074E+00	-2.15532E-01	13.00000
3.04027E+00	-2.18488E-01	14.00000
3.03976E+00	-2.22458E-01	15.00000
3.03924E+00	-2.26665E-01	16.00000
3.03875E+00	-2.29723E-01	17.00000
3.03827E+00	-2.32745E-01	18.00000
3.03776E+00	-2.36673E-01	19.00000
3.03726E+00	-2.40284E-01	20.00000
3.03678E+00	-2.43002E-01	21.00000
3.03627E+00	-2.46497E-01	22.00000
3.03576E+00	-2.50291E-01	23.00000
3.03527E+00	-2.53171E-01	24.00000
3.03479E+00	-2.55710E-01	25.00000
3.03428E+00	-2.59186E-01	26.00000
3.03376E+00	-2.62822E-01	27.00000
3.03328E+00	-2.65376E-01	28.00000
3.03278E+00	-2.68153E-01	29.00000
3.03227E+00	-2.71592E-01	30.00000
3.03177E+00	-2.74502E-01	31.00000
3.03129E+00	-2.76648E-01	32.00000
3.03079E+00	-2.79640E-01	33.00000
3.03027E+00	-2.82951E-01	34.00000
3.02978E+00	-2.85219E-01	35.00000
3.02930E+00	-2.87385E-01	36.00000
3.02879E+00	-2.90437E-01	37.00000
3.02828E+00	-2.93321E-01	38.00000
3.02780E+00	-2.95220E-01	39.00000
3.02730E+00	-2.97706E-01	40.00000
3.02678E+00	-3.00821E-01	41.00000
3.02629E+00	-3.03110E-01	42.00000
3.02581E+00	-3.04789E-01	43.00000
3.02530E+00	-3.07460E-01	44.00000
3.02478E+00	-3.10396E-01	45.00000
3.02430E+00	-3.12246E-01	46.00000
3.02382E+00	-3.14114E-01	47.00000
3.02329E+00	-3.16882E-01	48.00000
3.02278E+00	-3.19371E-01	49.00000
3.02231E+00	-3.20876E-01	50.00000
3.02181E+00	-3.23077E-01	51.00000
3.02129E+00	-3.25671E-01	52.00000
3.02080E+00	-3.27403E-01	53.00000
3.02033E+00	-3.28884E-01	54.00000
3.01981E+00	-3.31310E-01	55.00000
3.01929E+00	-3.33770E-01	56.00000
3.01882E+00	-3.35030E-01	57.00000
3.01833E+00	-3.36725E-01	58.00000
3.01781E+00	-3.39235E-01	59.00000
3.01731E+00	-3.41143E-01	60.00000
3.01683E+00	-3.42318E-01	61.00000
3.01633E+00	-3.44273E-01	62.00000
3.01581E+00	-3.46620E-01	63.00000
3.01533E+00	-3.47954E-01	64.00000
3.01485E+00	-3.49198E-01	65.00000
3.01433E+00	-3.51414E-01	66.00000
3.01381E+00	-3.53459E-01	67.00000
3.01334E+00	-3.54541E-01	68.00000
3.01284E+00	-3.56232E-01	69.00000
3.01232E+00	-3.58415E-01	70.00000
3.01182E+00	-3.59857E-01	71.00000
3.01134E+00	-3.60816E-01	72.00000
3.01084E+00	-3.62700E-01	73.00000
3.01032E+00	-3.64779E-01	74.00000
3.00984E+00	-3.65739E-01	75.00000
3.00935E+00	-3.66865E-01	76.00000
3.00884E+00	-3.68859E-01	77.00000
3.00833E+00	-3.70467E-01	78.00000
3.00785E+00	-3.71167E-01	79.00000
3.00735E+00	-3.72744E-01	80.00000
3.00683E+00	-3.74756E-01	81.00000
3.00634E+00	-3.75794E-01	82.00000
3.00587E+00	-3.76555E-01	83.00000
3.00535E+00	-3.78295E-01	84.00000
3.00484E+00	-3.80019E-01	85.00000
3.00436E+00	-3.80613E-01	86.00000
3.00387E+00	-3.81760E-01	87.00000
3.00335E+00	-3.83660E-01	88.00000
3.00284E+00	-3.84892E-01	89.00000
3.00237E+00	-3.85444E-01	90.00000
3.00186E+00	-3.86863E-01	91.00000
3.00135E+00	-3.88585E-01	92.00000
3.00086E+00	-3.89330E-01	93.00000
3.00038E+00	-3.90055E-01	94.00000
2.99986E+00	-3.91468E-01	95.00000
2.99936E+00	-3.92689E-01	96.00000
2.99889E+00	-3.93096E-01	97.00000
2.99839E+00	-3.94263E-01	98.00000
2.99787E+00	-3.95943E-01	99.00000
2.99737E+00	-3.96856E-01	100.00000
2.99690E+00	-3.97192E-01	101.00000
2.99639E+00	-3.98470E-01	102.00000
2.99588E+00	-3.99943E-01	103.00000
2.99539E+00	-4.00434E-01	104.00000
2.99491E+00	-4.01147E-01	105.00000
2.99439E+00	-4.02578E-01	106.00000
2.99388E+00	-4.03594E-01	107.00000
2.99341E+00	-4.03933E-01	108.00000
2.99291E+00	-4.05101E-01	109.00000
2.99239E+00	-4.06532E-01	110.00000
2.99190E+00	-4.07051E-01	111.00000
2.99142E+00	-4.07338E-01	112.00000
2.99091E+00	-4.08497E-01	113.00000
2.99039E+00	-4.09627E-01	114.00000
2.98991E+00	-4.10003E-01	115.00000
2.98942E+00	-4.10772E-01	116.00000
2.98890E+00	-4.11999E-01	117.00000
2.98841E+00	-4.12685E-01	118.00000
2.98793E+00	-4.12914E-01	119.00000
2.98742E+00	-4.13958E-01	120.00000
2.98690E+00	-4.15129E-01	121.00000
2.98641E+00	-4.15520E-01	122.00000
2.98593E+00	-4.15886E-01	123.00000
2.98541E+00	-4.16858E-01	124.00000
2.98490E+00	-4.17644E-01	125.00000
2.98442E+00	-4.17907E-01	126.00000
2.98392E+00	-4.18781E-01	127.00000
2.98341E+00	-4.19841E-01	128.00000
2.98291E+00	-4.20231E-01	129.00000
2.98244E+00	-4.20361E-01	130.00000
2.98192E+00	-4.21195E-01	131.00000
2.98141E+00	-4.22035E-01	132.00000
2.98093E+00	-4.22316E-01	133.00000
2.98044E+00	-4.22753E-01	134.00000
2.97992E+00	-4.23631E-01	135.00000
2.97942E+00	-4.24071E-01	136.00000
2.97895E+00	-4.24218E-01	137.00000
2.97844E+00	-4.25057E-01	138.00000
2.97792E+00	-4.25980E-01	139.00000
2.97743E+00	-4.26173E-01	140.00000
2.97695E+00	-4.26237E-01	141.00000
2.97644E+00	-4.27010E-01	142.00000
2.97593E+00	-4.27599E-01	143.00000
2.97545E+00	-4.27796E-01	144.00000
2.97496E+00	-4.28363E-01	145.00000
2.97443E+00	-4.29198E-01	146.00000
2.97393E+00	-4.29325E-01	147.00000
2.97346E+00	-4.29367E-01	148.00000
2.97295E+00	-4.30029E-01	149.00000
2.97243E+00	-4.30693E-01	150.00000
2.97195E+00	-4.30914E-01	151.00000
2.97147E+00	-4.31037E-01	152.00000
2.97095E+00	-4.31620E-01	153.00000
2.97044E+00	-4.31882E-01	154.00000
2.96997E+00	-4.31970E-01	155.00000
2.96947E+00	-4.32640E-01	156.00000
2.96895E+00	-4.33299E-01	157.00000
2.96845E+00	-4.33219E-01	158.00000
2.96798E+00	-4.33237E-01	159.00000
2.96746E+00	-4.33703E-01	160.00000
2.96695E+00	-4.34129E-01	161.00000
2.96647E+00	-4.34271E-01	162.00000
2.96598E+00	-4.34592E-01	163.00000
2.96546E+00	-4.35143E-01	164.00000
2.96496E+00	-4.35131E-01	165.00000
2.96449E+00	-4.35245E-01	166.00000
2.96398E+00	-4.35753E-01	167.00000
2.96346E+00	-4.36144E-01	168.00000
2.96297E+00	-4.35956E-01	169.00000
2.96249E+00	-4.36009E-01	170.00000
2.96198E+00	-4.36315E-01	171.00000
2.96147E+00	-4.36458E-01	172.00000
2.96099E+00	-4.36584E-01	173.00000
2.96050E+00	-4.36899E-01	174.00000
2.95998E+00	-4.37262E-01	175.00000
2.95948E+00	-4.37132E-01	176.00000
2.95900E+00	-4.37210E-01	177.00000
2.95849E+00	-4.37576E-01	178.00000
2.95797E+00	-4.37724E-01	179.00000
2.95749E+00	-4.37794E-01	180.00000
2.95701E+00	-4.37867E-01	181.00000
2.95649E+00	-4.38003E-01	182.00000
2.95599E+00	-4.37976E-01	183.00000
2.95551E+00	-4.38012E-01	184.00000
2.95501E+00	-4.38431E-01	185.00000
2.95449E+00	-4.38619E-01	186.00000
2.95400E+00	-4.38391E-01	187.00000
2.95352E+00	-4.38377E-01	188.00000
2.95301E+00	-4.38623E-01	189.00000
2.95249E+00	-4.38701E-01	190.00000
2.95202E+00	-4.38778E-01	191.00000
2.95153E+00	-4.38829E-01	192.00000
2.95101E+00	-4.38872E-01	193.00000
2.95050E+00	-4.38723E-01	194.00000
2.95003E+00	-4.38688E-01	195.00000
2.94952E+00	-4.38911E-01	196.00000
2.94899E+00	-4.38973E-01	197.00000
2.94851E+00	-4.38712E-01	198.00000
2.94803E+00	-4.38646E-01	199.00000
2.94752E+00	-4.38673E-01	200.00000
2.94701E+00	-4.38660E-01	201.00000
2.94653E+00	-4.38665E-01	202.00000
2.94603E+00	-4.38786E-01	203.00000
2.94551E+00	-4.38828E-01	204.00000
2.94501E+00	-4.38542E-01	205.00000
2.94453E+00	-4.38461E-01	206.00000
2.94402E+00	-4.38442E-01	207.00000
2.94350E+00	-4.38409E-01	208.00000
2.94302E+00	-4.38215E-01	209.00000
2.94254E+00	-4.38180E-01	210.00000
2.94202E+00	-4.38103E-01	211.00000
2.94151E+00	-4.37923E-01	212.00000
2.94104E+00	-4.37837E-01	213.00000
2.94054E+00	-4.37893E-01	214.00000
2.94002E+00	-4.37883E-01	215.00000
2.93953E+00	-4.37478E-01	216.00000
2.93905E+00	-4.37340E-01	217.00000
2.93853E+00	-4.37167E-01	218.00000
2.93802E+00	-4.37063E-01	219.00000
2.93754E+00	-4.36754E-01	220.00000
2.93705E+00	-4.36747E-01	221.00000
2.93653E+00	-4.36672E-01	222.00000
2.93603E+00	-4.36313E-01	223.00000
2.93556E+00	-4.36168E-01	224.00000
2.93504E+00	-4.36107E-01	225.00000
2.93452E+00	-4.36039E-01	226.00000
2.93403E+00	-4.35455E-01	227.00000
2.93355E+00	-4.35217E-01	228.00000
2.93304E+00	-4.35034E-01	229.00000
2.93253E+00	-4.34845E-01	230.00000
2.93206E+00	-4.34579E-01	231.00000
2.93156E+00	-4.34466E-01	232.00000
2.93104E+00	-4.34419E-01	233.00000
2.93055E+00	-4.33838E-01	234.00000
2.93007E+00	-4.33684E-01	235.00000
2.92956E+00	-4.33519E-01	236.00000
2.92904E+00	-4.33413E-01	237.00000
2.92856E+00	-4.32803E-01	238.00000
2.92807E+00	-4.32512E-01	239.00000
2.92756E+00	-4.32415E-01	240.00000
2.92705E+00	-4.32048E-01	241.00000
2.92657E+00	-4.31777E-01	242.00000
2.92607E+00	-4.31632E-01	243.00000
2.92555E+00	-4.31493E-01	244.00000
2.92506E+00	-4.30792E-01	245.00000
2.92458E+00	-4.30459E-01	246.00000
2.92407E+00	-4.30208E-01	247.00000
2.92356E+00	-4.30019E-01	248.00000
2.92308E+00	-4.29478E-01	249.00000
2.92259E+00	-4.29266E-01	250.00000
2.92207E+00	-4.29195E-01	251.00000
2.92157E+00	-4.28646E-01	252.00000
2.92110E+00	-4.28156E-01	253.00000
2.92060E+00	-4.27909E-01	254.00000
2.92008E+00	-4.27763E-01	255.00000
2.91959E+00	-4.26943E-01	256.00000
2.91911E+00	-4.26510E-01	257.00000
2.91860E+00	-4.26294E-01	258.00000
2.91809E+00	-4.26057E-01	259.00000
2.91761E+00	-4.25679E-01	260.00000
2.91711E+00	-4.25445E-01	261.00000
2.91659E+00	-4.25367E-01	262.00000
2.91610E+00	-4.24655E-01	263.00000
2.91562E+00	-4.24226E-01	264.00000
2.91510E+00	-4.23923E-01	265.00000
2.91459E+00	-4.23741E-01	266.00000
2.91411E+00	-4.22941E-01	267.00000
2.91362E+00	-4.22471E-01	268.00000
2.91310E+00	-4.22314E-01	269.00000
2.91260E+00	-4.21854E-01	270.00000
2.91212E+00	-4.21353E-01	271.00000
2.91162E+00	-4.21071E-01	272.00000
2.91110E+00	-4.20954E-01	273.00000
2.91061E+00	-4.19994E-01	274.00000
2.91014E+00	-4.19470E-01	275.00000
2.90962E+00	-4.19208E-01	276.00000
2.90911E+00	-4.18897E-01	277.00000
2.90863E+00	-4.18173E-01	278.00000
2.90814E+00	-4.17712E-01	279.00000
2.90762E+00	-4.17559E-01	280.00000
2.90712E+00	-4.16927E-01	281.00000
2.90664E+00	-4.16462E-01	282.00000
2.90613E+00	-4.16111E-01	283.00000
2.90561E+00	-4.15951E-01	284.00000
2.90513E+00	-4.14949E-01	285.00000
2.90465E+00	-4.14349E-01	286.00000
2.90413E+00	-4.14145E-01	287.00000
2.90362E+00	-4.13713E-01	288.00000
2.90315E+00	-4.12945E-01	289.00000
2.90265E+00	-4.12345E-01	290.00000
2.90214E+00	-4.12145E-01	291.00000
2.90165E+00	-4.11332E-01	292.00000
2.90117E+00	-4.10549E-01	293.00000
2.90066E+00	-4.09952E-01	294.00000
2.90014E+00	-4.09473E-01	295.00000
2.89965E+00	-4.09039E-01	296.00000
2.89913E+00	-4.08721E-01	297.00000
2.89861E+00	-4.08400E-01	298.00000
2.89814E+00	-4.07585E-01	299.00000
2.89764E+00	-4.07035E-01	300.00000
2.89712E+00	-4.06851E-01	301.00000
2.89662E+00	-4.06158E-01	302.00000
2.89614E+00	-4.05587E-01	303.00000
2.89563E+00	-4.05098E-01	304.00000
2.89511E+00	-4.04935E-01	305.00000
2.89464E+00	-4.03753E-01	306.00000
2.89416E+00	-4.02975E-01	307.00000
2.89364E+00	-4.02716E-01	308.00000
2.89313E+00	-4.02342E-01	309.00000
2.89265E+00	-4.01572E-01	310.00000
2.89216E+00	-4.01028E-01	311.00000
2.89163E+00	-4.00847E-01	312.00000
2.89114E+00	-3.99987E-01	313.00000
2.89066E+00	-3.99318E-01	314.00000
2.89015E+00	-3.98788E-01	315.00000
2.88963E+00	-3.98568E-01	316.00000
2.88915E+00	-3.97554E-01	317.00000
2.88866E+00	-3.96866E-01	318.00000
2.88814E+00	-3.96636E-01	319.00000
2.88764E+00	-3.96015E-01	320.00000
2.88717E+00	-3.95309E-01	321.00000
2.88666E+00	-3.94686E-01	322.00000
2.88614E+00	-3.94479E-01	323.00000
2.88566E+00	-3.93350E-01	324.00000
2.88518E+00	-3.92558E-01	325.00000
2.88467E+00	-3.92118E-01	326.00000
2.88415E+00	-3.91756E-01	327.00000
2.88368E+00	-3.90836E-01	328.00000
2.88318E+00	-3.90153E-01	329.00000
2.88266E+00	-3.89926E-01	330.00000
2.88217E+00	-3.89070E-01	331.00000
2.88170E+00	-3.88365E-01	332.00000
2.88119E+00	-3.87810E-01	333.00000
2.88066E+00	-3.87625E-01	334.00000
2.88018E+00	-3.86466E-01	335.00000
2.87970E+00	-3.85673E-01	336.00000
2.87918E+00	-3.85408E-01	337.00000
2.87867E+00	-3.84897E-01	338.00000
2.87820E+00	-3.84011E-01	339.00000
2.87770E+00	-3.83332E-01	340.00000
2.87717E+00	-3.83105E-01	341.00000
2.87668E+00	-3.82143E-01	342.00000
2.87620E+00	-3.81390E-01	343.00000
2.87569E+00	-3.80864E-01	344.00000
2.87518E+00	-3.80547E-01	345.00000
2.87470E+00	-3.79403E-01	346.00000
2.87421E+00	-3.78619E-01	347.00000
2.87369E+00	-3.78358E-01	348.00000
2.87319E+00	-3.77703E-01	349.00000
2.87271E+00	-3.76980E-01	350.00000
2.87220E+00	-3.76256E-01	351.00000
2.87168E+00	-3.76014E-01	352.00000
2.87120E+00	-3.74796E-01	353.00000
2.87072E+00	-3.73954E-01	354.00000
2.87020E+00	-3.73553E-01	355.00000
2.86969E+00	-3.73076E-01	356.00000
2.86922E+00	-3.72090E-01	357.00000
2.86872E+00	-3.71385E-01	358.00000
2.86819E+00	-3.71150E-01	359.00000
2.86769E+00	-3.70328E-01	360.00000
2.86722E+00	-3.69579E-01	361.00000
2.86671E+00	-3.68896E-01	362.00000
2.86619E+00	-3.68613E-01	363.00000
2.86571E+00	-3.67317E-01	364.00000
2.86523E+00	-3.66394E-01	365.00000
2.86472E+00	-3.66050E-01	366.00000
2.86421E+00	-3.65460E-01	367.00000
2.86374E+00	-3.64564E-01	368.00000
2.86324E+00	-3.63773E-01	369.00000
2.86272E+00	-3.63509E-01	370.00000
2.86223E+00	-3.62445E-01	371.00000
2.86175E+00	-3.61640E-01	372.00000
2.86124E+00	-3.61085E-01	373.00000
2.86072E+00	-3.60735E-01	374.00000
2.86024E+00	-3.59608E-01	375.00000
2.85975E+00	-3.58776E-01	376.00000
2.85924E+00	-3.58499E-01	377.00000
2.85874E+00	-3.57759E-01	378.00000
2.85826E+00	-3.56989E-01	379.00000
2.85775E+00	-3.56333E-01	380.00000
2.85722E+00	-3.56114E-01	381.00000
2.85673E+00	-3.54926E-01	382.00000
2.85625E+00	-3.54006E-01	383.00000
2.85574E+00	-3.53579E-01	384.00000
2.85523E+00	-3.53017E-01	385.00000
2.85475E+00	-3.51992E-01	386.00000
2.85426E+00	-3.51202E-01	387.00000
2.85374E+00	-3.50939E-01	388.00000
2.85325E+00	-3.50012E-01	389.00000
2.85277E+00	-3.49212E-01	390.00000
2.85226E+00	-3.48565E-01	391.00000
2.85173E+00	-3.48250E-01	392.00000
2.85125E+00	-3.47015E-01	393.00000
2.85077E+00	-3.46172E-01	394.00000
2.85025E+00	-3.45890E-01	395.00000
2.84975E+00	-3.45232E-01	396.00000
2.84928E+00	-3.44253E-01	397.00000
2.84877E+00	-3.43428E-01	398.00000
2.84825E+00	-3.43153E-01	399.00000
2.84776E+00	-3.42030E-01	400.00000
2.84728E+00	-3.41219E-01	401.00000
2.84677E+00	-3.40646E-01	402.00000
2.84626E+00	-3.40291E-01	403.00000
2.84579E+00	-3.39114E-01	404.00000
2.84529E+00	-3.38201E-01	405.00000
2.84477E+00	-3.37897E-01	406.00000
2.84427E+00	-3.37037E-01	407.00000
2.84380E+00	-3.36040E-01	408.00000
2.84329E+00	-3.35192E-01	409.00000
2.84278E+00	-3.34830E-01	410.00000
2.84230E+00	-3.33654E-01	411.00000
2.84181E+00	-3.32858E-01	412.00000
2.84130E+00	-3.32460E-01	413.00000
2.84080E+00	-3.31897E-01	414.00000
2.84032E+00	-3.30890E-01	415.00000
2.83982E+00	-3.30166E-01	416.00000
2.83930E+00	-3.29924E-01	417.00000
2.83881E+00	-3.28864E-01	418.00000
2.83833E+00	-3.27980E-01	419.00000
2.83781E+00	-3.27453E-01	420.00000
2.83729E+00	-3.27150E-01	421.00000
2.83681E+00	-3.25922E-01	422.00000
2.83633E+00	-3.25014E-01	423.00000
2.83581E+00	-3.24711E-01	424.00000
2.83530E+00	-3.24075E-01	425.00000
2.83482E+00	-3.23148E-01	426.00000
2.83432E+00	-3.22319E-01	427.00000
2.83380E+00	-3.22043E-01	428.00000
2.83332E+00	-3.20948E-01	429.00000
2.83284E+00	-3.20162E-01	430.00000
2.83232E+00	-3.19640E-01	431.00000
2.83181E+00	-3.19191E-01	432.00000
2.83133E+00	-3.17991E-01	433.00000
2.83084E+00	-3.17119E-01	434.00000
2.83032E+00	-3.16829E-01	435.00000
2.82982E+00	-3.15957E-01	436.00000
2.82935E+00	-3.15147E-01	437.00000
2.82884E+00	-3.14433E-01	438.00000
2.82831E+00	-3.14190E-01	439.00000
2.82783E+00	-3.12878E-01	440.00000
2.82735E+00	-3.11903E-01	441.00000
2.82683E+00	-3.11516E-01	442.00000
2.82632E+00	-3.10893E-01	443.00000
2.82585E+00	-3.09898E-01	444.00000
2.82535E+00	-3.09158E-01	445.00000
2.82483E+00	-3.08911E-01	446.00000
2.82434E+00	-3.07914E-01	447.00000
2.82387E+00	-3.07011E-01	448.00000
2.82336E+00	-3.06282E-01	449.00000
2.82284E+00	-3.05966E-01	450.00000
2.82236E+00	-3.04798E-01	451.00000
2.82187E+00	-3.03897E-01	452.00000
2.82135E+00	-3.03597E-01	453.00000
2.82085E+00	-3.02925E-01	454.00000
2.82038E+00	-3.02083E-01	455.00000
2.81987E+00	-3.01235E-01	456.00000
2.81935E+00	-3.00920E-01	457.00000
2.81887E+00	-2.99739E-01	458.00000
2.81838E+00	-2.99022E-01	459.00000
2.81787E+00	-2.98612E-01	460.00000
2.81735E+00	-2.98220E-01	461.00000
2.81687E+00	-2.97158E-01	462.00000
2.81638E+00	-2.96280E-01	463.00000
2.81586E+00	-2.95988E-01	464.00000
2.81537E+00	-2.95067E-01	465.00000
2.81488E+00	-2.94225E-01	466.00000
2.81437E+00	-2.93535E-01	467.00000
2.81385E+00	-2.93263E-01	468.00000
2.81337E+00	-2.92060E-01	469.00000
2.81289E+00	-2.91175E-01	470.00000
2.81237E+00	-2.90873E-01	471.00000
2.81187E+00	-2.90280E-01	472.00000
2.81139E+00	-2.89355E-01	473.00000
2.81089E+00	-2.88568E-01	474.00000
2.81037E+00	-2.88306E-01	475.00000
2.80988E+00	-2.87228E-01	476.00000
2.80940E+00	-2.86416E-01	477.00000
2.80888E+00	-2.85864E-01	478.00000
2.80837E+00	-2.85482E-01	479.00000
2.80789E+00	-2.84268E-01	480.00000
2.80740E+00	-2.83412E-01	481.00000
2.80689E+00	-2.83127E-01	482.00000
2.80639E+00	-2.82340E-01	483.00000
2.80592E+00	-2.81434E-01	484.00000
2.80542E+00	-2.80699E-01	485.00000
2.80489E+00	-2.80454E-01	486.00000
2.80441E+00	-2.79309E-01	487.00000
2.80393E+00	-2.78492E-01	488.00000
2.80341E+00	-2.78057E-01	489.00000
2.80290E+00	-2.77640E-01	490.00000
2.80242E+00	-2.76650E-01	491.00000
2.80192E+00	-2.75895E-01	492.00000
2.80140E+00	-2.75644E-01	493.00000
2.80090E+00	-2.74765E-01	494.00000
2.80043E+00	-2.73900E-01	495.00000
2.79992E+00	-2.73177E-01	496.00000
2.79940E+00	-2.72935E-01	497.00000
2.79892E+00	-2.71760E-01	498.00000
2.79843E+00	-2.70945E-01	499.00000
2.79791E+00	-2.70673E-01	500.00000
2.79741E+00	-2.70072E-01	501.00000
2.79693E+00	-2.69112E-01	502.00000
2.79643E+00	-2.68384E-01	503.00000
2.79591E+00	-2.68142E-01	504.00000
2.79543E+00	-2.67031E-01	505.00000
2.79495E+00	-2.66192E-01	506.00000
2.79444E+00	-2.65641E-01	507.00000
2.79392E+00	-2.65436E-01	508.00000
2.79344E+00	-2.64493E-01	509.00000
2.79294E+00	-2.63640E-01	510.00000
2.79242E+00	-2.63355E-01	511.00000
2.79193E+00	-2.62510E-01	512.00000
2.79145E+00	-2.61749E-01	513.00000
2.79094E+00	-2.61087E-01	514.00000
2.79042E+00	-2.60850E-01	515.00000
2.78994E+00	-2.59667E-01	516.00000
2.78946E+00	-2.58909E-01	517.00000
2.78894E+00	-2.58618E-01	518.00000
2.78842E+00	-2.58212E-01	519.00000
2.78795E+00	-2.57262E-01	520.00000
2.78746E+00	-2.56454E-01	521.00000
2.78694E+00	-2.56185E-01	522.00000
2.78645E+00	-2.55231E-01	523.00000
2.78597E+00	-2.54446E-01	524.00000
2.78546E+00	-2.53853E-01	525.00000
2.78494E+00	-2.53537E-01	526.00000
2.78446E+00	-2.52387E-01	527.00000
2.78397E+00	-2.51603E-01	528.00000
2.78346E+00	-2.51342E-01	529.00000
2.78295E+00	-2.50720E-01	530.00000
2.78248E+00	-2.49891E-01	531.00000
2.78198E+00	-2.49158E-01	532.00000
2.78146E+00	-2.48913E-01	533.00000
2.78097E+00	-2.47864E-01	534.00000
2.78050E+00	-2.47134E-01	535.00000
2.77998E+00	-2.46623E-01	536.00000
2.77946E+00	-2.46361E-01	537.00000
2.77899E+00	-2.45371E-01	538.00000
2.77849E+00	-2.44537E-01	539.00000
2.77798E+00	-2.44259E-01	540.00000
2.77748E+00	-2.43483E-01	541.00000
2.77700E+00	-2.42797E-01	542.00000
2.77649E+00	-2.42165E-01	543.00000
2.77597E+00	-2.41955E-01	544.00000
2.77549E+00	-2.40742E-01	545.00000
2.77501E+00	-2.39989E-01	546.00000
2.77449E+00	-2.39738E-01	547.00000
2.77398E+00	-2.39349E-01	548.00000
2.77351E+00	-2.38468E-01	549.00000
2.77301E+00	-2.37750E-01	550.00000
2.77249E+00	-2.37511E-01	551.00000
2.77200E+00	-2.36651E-01	552.00000
2.77152E+00	-2.35961E-01	553.00000
2.77101E+00	-2.35328E-01	554.00000
2.77050E+00	-2.35089E-01	555.00000
2.77002E+00	-2.34026E-01	556.00000
2.76953E+00	-2.33387E-01	557.00000
2.76900E+00	-2.33175E-01	558.00000
2.76850E+00	-2.32592E-01	559.00000
2.76803E+00	-2.31763E-01	560.00000
2.76752E+00	-2.31026E-01	561.00000
2.76700E+00	-2.30781E-01	562.00000
2.76651E+00	-2.29727E-01	563.00000
2.76604E+00	-2.28953E-01	564.00000
2.76553E+00	-2.28476E-01	565.00000
2.76502E+00	-2.28070E-01	566.00000
2.76454E+00	-2.27106E-01	567.00000
2.76405E+00	-2.26428E-01	568.00000
2.76353E+00	-2.26202E-01	569.00000
2.76304E+00	-2.25413E-01	570.00000
2.76257E+00	-2.24699E-01	571.00000
2.76205E+00	-2.24133E-01	572.00000
2.76153E+00	-2.23944E-01	573.00000
