E(V)	i(A/cm²)	T(s)
3.02338E+00	-1.61963E-01	0.00000
3.02314E+00	-1.63305E-01	1.00000
3.02263E+00	-1.67523E-01	2.00000
3.02216E+00	-1.71062E-01	3.00000
3.02165E+00	-1.75510E-01	4.00000
3.02113E+00	-1.80210E-01	5.00000
3.02064E+00	-1.83855E-01	6.00000
3.02017E+00	-1.87315E-01	7.00000
3.01965E+00	-1.91742E-01	8.00000
3.01914E+00	-1.96103E-01	9.00000
3.01866E+00	-1.99370E-01	10.00000
3.01817E+00	-2.03177E-01	11.00000
3.01765E+00	-2.07592E-01	12.00000
3.01715E+00	-2.11182E-01	13.00000
3.01667E+00	-2.14192E-01	14.00000
3.01617E+00	-2.18136E-01	15.00000
3.01566E+00	-2.22229E-01	16.00000
3.01517E+00	-2.25228E-01	17.00000
3.01468E+00	-2.28365E-01	18.00000
3.01416E+00	-2.32260E-01	19.00000
3.01366E+00	-2.35797E-01	20.00000
3.01318E+00	-2.38474E-01	21.00000
3.01268E+00	-2.41797E-01	22.00000
3.01216E+00	-2.45620E-01	23.00000
3.01166E+00	-2.48521E-01	24.00000
3.01119E+00	-2.50987E-01	25.00000
3.01067E+00	-2.54377E-01	26.00000
3.01016E+00	-2.57698E-01	27.00000
3.00968E+00	-2.59953E-01	28.00000
3.00920E+00	-2.62586E-01	29.00000
3.00868E+00	-2.65921E-01	30.00000
3.00818E+00	-2.68803E-01	31.00000
3.00770E+00	-2.70912E-01	32.00000
3.00719E+00	-2.73796E-01	33.00000
3.00667E+00	-2.76979E-01	34.00000
3.00619E+00	-2.79123E-01	35.00000
3.00571E+00	-2.81176E-01	36.00000
3.00520E+00	-2.84139E-01	37.00000
3.00469E+00	-2.86908E-01	38.00000
3.00421E+00	-2.88620E-01	39.00000
3.00371E+00	-2.91036E-01	40.00000
3.00319E+00	-2.94022E-01	41.00000
3.00269E+00	-2.96153E-01	42.00000
3.00222E+00	-2.97767E-01	43.00000
3.00171E+00	-3.00271E-01	44.00000
3.00119E+00	-3.02984E-01	45.00000
3.00071E+00	-3.04615E-01	46.00000
3.00023E+00	-3.06374E-01	47.00000
2.99971E+00	-3.08945E-01	48.00000
2.99920E+00	-3.11062E-01	49.00000
2.99873E+00	-3.12311E-01	50.00000
2.99823E+00	-3.14406E-01	51.00000
2.99771E+00	-3.16932E-01	52.00000
2.99723E+00	-3.18509E-01	53.00000
2.99675E+00	-3.19805E-01	54.00000
2.99624E+00	-3.22067E-01	55.00000
2.99572E+00	-3.24351E-01	56.00000
2.99524E+00	-3.25572E-01	57.00000
2.99475E+00	-3.27162E-01	58.00000
2.99423E+00	-3.29488E-01	59.00000
2.99373E+00	-3.31230E-01	60.00000
2.99325E+00	-3.32269E-01	61.00000
2.99275E+00	-3.34290E-01	62.00000
2.99223E+00	-3.36490E-01	63.00000
2.99174E+00	-3.37574E-01	64.00000
2.99126E+00	-3.38668E-01	65.00000
2.99075E+00	-3.40631E-01	66.00000
2.99024E+00	-3.42488E-01	67.00000
2.98976E+00	-3.43344E-01	68.00000
2.98926E+00	-3.44800E-01	69.00000
2.98874E+00	-3.46875E-01	70.00000
2.98824E+00	-3.48177E-01	71.00000
2.98777E+00	-3.49012E-01	72.00000
2.98726E+00	-3.50649E-01	73.00000
2.98675E+00	-3.52389E-01	74.00000
2.98627E+00	-3.53137E-01	75.00000
2.98578E+00	-3.54154E-01	76.00000
2.98526E+00	-3.55994E-01	77.00000
2.98475E+00	-3.57472E-01	78.00000
2.98427E+00	-3.58152E-01	79.00000
2.98377E+00	-3.59562E-01	80.00000
2.98325E+00	-3.61379E-01	81.00000
2.98276E+00	-3.62304E-01	82.00000
2.98228E+00	-3.62889E-01	83.00000
2.98177E+00	-3.64366E-01	84.00000
2.98125E+00	-3.65869E-01	85.00000
2.98077E+00	-3.66401E-01	86.00000
2.98028E+00	-3.67454E-01	87.00000
2.97977E+00	-3.69012E-01	88.00000
2.97927E+00	-3.69963E-01	89.00000
2.97880E+00	-3.70292E-01	90.00000
2.97829E+00	-3.71541E-01	91.00000
2.97777E+00	-3.73047E-01	92.00000
2.97728E+00	-3.73641E-01	93.00000
2.97680E+00	-3.74188E-01	94.00000
2.97628E+00	-3.75582E-01	95.00000
2.97576E+00	-3.76705E-01	96.00000
2.97529E+00	-3.77079E-01	97.00000
2.97479E+00	-3.78034E-01	98.00000
2.97428E+00	-3.79436E-01	99.00000
2.97378E+00	-3.80189E-01	100.00000
2.97330E+00	-3.80439E-01	101.00000
2.97279E+00	-3.81582E-01	102.00000
2.97227E+00	-3.82753E-01	103.00000
2.97180E+00	-3.83143E-01	104.00000
2.97131E+00	-3.83724E-01	105.00000
2.97079E+00	-3.84833E-01	106.00000
2.97029E+00	-3.85510E-01	107.00000
2.96981E+00	-3.85736E-01	108.00000
2.96931E+00	-3.86706E-01	109.00000
2.96879E+00	-3.87906E-01	110.00000
2.96830E+00	-3.88406E-01	111.00000
2.96782E+00	-3.88577E-01	112.00000
2.96731E+00	-3.89457E-01	113.00000
2.96679E+00	-3.90305E-01	114.00000
2.96632E+00	-3.90588E-01	115.00000
2.96582E+00	-3.91282E-01	116.00000
2.96530E+00	-3.92344E-01	117.00000
2.96480E+00	-3.92787E-01	118.00000
2.96433E+00	-3.92935E-01	119.00000
2.96382E+00	-3.93791E-01	120.00000
2.96330E+00	-3.94660E-01	121.00000
2.96282E+00	-3.94950E-01	122.00000
2.96234E+00	-3.95138E-01	123.00000
2.96182E+00	-3.95935E-01	124.00000
2.96131E+00	-3.96448E-01	125.00000
2.96084E+00	-3.96619E-01	126.00000
2.96034E+00	-3.97259E-01	127.00000
2.95983E+00	-3.98077E-01	128.00000
2.95933E+00	-3.98271E-01	129.00000
2.95885E+00	-3.98335E-01	130.00000
2.95834E+00	-3.98992E-01	131.00000
2.95782E+00	-3.99587E-01	132.00000
2.95734E+00	-3.99785E-01	133.00000
2.95685E+00	-4.00070E-01	134.00000
2.95634E+00	-4.00765E-01	135.00000
2.95583E+00	-4.01036E-01	136.00000
2.95535E+00	-4.01126E-01	137.00000
2.95485E+00	-4.01790E-01	138.00000
2.95433E+00	-4.02484E-01	139.00000
2.95384E+00	-4.02568E-01	140.00000
2.95336E+00	-4.02606E-01	141.00000
2.95285E+00	-4.03121E-01	142.00000
2.95233E+00	-4.03484E-01	143.00000
2.95186E+00	-4.03605E-01	144.00000
2.95136E+00	-4.04037E-01	145.00000
2.95084E+00	-4.04561E-01	146.00000
2.95035E+00	-4.04488E-01	147.00000
2.94987E+00	-4.04558E-01	148.00000
2.94936E+00	-4.05097E-01	149.00000
2.94883E+00	-4.05417E-01	150.00000
2.94835E+00	-4.05429E-01	151.00000
2.94787E+00	-4.05540E-01	152.00000
2.94736E+00	-4.05892E-01	153.00000
2.94685E+00	-4.05932E-01	154.00000
2.94638E+00	-4.06063E-01	155.00000
2.94588E+00	-4.06479E-01	156.00000
2.94536E+00	-4.06869E-01	157.00000
2.94486E+00	-4.06691E-01	158.00000
2.94438E+00	-4.06748E-01	159.00000
2.94387E+00	-4.07057E-01	160.00000
2.94335E+00	-4.07179E-01	161.00000
2.94288E+00	-4.07322E-01	162.00000
2.94239E+00	-4.07442E-01	163.00000
2.94188E+00	-4.07651E-01	164.00000
2.94137E+00	-4.07592E-01	165.00000
2.94090E+00	-4.07642E-01	166.00000
2.94040E+00	-4.07871E-01	167.00000
2.93988E+00	-4.07963E-01	168.00000
2.93939E+00	-4.07794E-01	169.00000
2.93891E+00	-4.07768E-01	170.00000
2.93840E+00	-4.07984E-01	171.00000
2.93788E+00	-4.08048E-01	172.00000
2.93740E+00	-4.08141E-01	173.00000
2.93691E+00	-4.08336E-01	174.00000
2.93639E+00	-4.08432E-01	175.00000
2.93589E+00	-4.08249E-01	176.00000
2.93542E+00	-4.08220E-01	177.00000
2.93491E+00	-4.08402E-01	178.00000
2.93439E+00	-4.08453E-01	179.00000
2.93390E+00	-4.08354E-01	180.00000
2.93342E+00	-4.08338E-01	181.00000
2.93290E+00	-4.08300E-01	182.00000
2.93240E+00	-4.08210E-01	183.00000
2.93192E+00	-4.08167E-01	184.00000
2.93142E+00	-4.08316E-01	185.00000
2.93090E+00	-4.08351E-01	186.00000
2.93041E+00	-4.07981E-01	187.00000
2.92993E+00	-4.07869E-01	188.00000
2.92942E+00	-4.07867E-01	189.00000
2.92891E+00	-4.07829E-01	190.00000
2.92843E+00	-4.07755E-01	191.00000
2.92794E+00	-4.07755E-01	192.00000
2.92742E+00	-4.07731E-01	193.00000
2.92691E+00	-4.07475E-01	194.00000
2.92644E+00	-4.07382E-01	195.00000
2.92593E+00	-4.07348E-01	196.00000
2.92542E+00	-4.07306E-01	197.00000
2.92493E+00	-4.06852E-01	198.00000
2.92445E+00	-4.06740E-01	199.00000
2.92393E+00	-4.06555E-01	200.00000
2.92343E+00	-4.06456E-01	201.00000
2.92295E+00	-4.06290E-01	202.00000
2.92245E+00	-4.06254E-01	203.00000
2.92193E+00	-4.06226E-01	204.00000
2.92144E+00	-4.05566E-01	205.00000
2.92098E+00	-4.05278E-01	206.00000
2.92047E+00	-4.05223E-01	207.00000
2.91994E+00	-4.05109E-01	208.00000
2.91946E+00	-4.04586E-01	209.00000
2.91898E+00	-4.04437E-01	210.00000
2.91846E+00	-4.04282E-01	211.00000
2.91795E+00	-4.03988E-01	212.00000
2.91748E+00	-4.03765E-01	213.00000
2.91697E+00	-4.03770E-01	214.00000
2.91645E+00	-4.03697E-01	215.00000
2.91596E+00	-4.03187E-01	216.00000
2.91548E+00	-4.02978E-01	217.00000
2.91497E+00	-4.02757E-01	218.00000
2.91445E+00	-4.02613E-01	219.00000
2.91398E+00	-4.02100E-01	220.00000
2.91349E+00	-4.01896E-01	221.00000
2.91297E+00	-4.01829E-01	222.00000
2.91247E+00	-4.01376E-01	223.00000
2.91200E+00	-4.01092E-01	224.00000
2.91149E+00	-4.00953E-01	225.00000
2.91097E+00	-4.00812E-01	226.00000
2.91048E+00	-4.00072E-01	227.00000
2.91000E+00	-3.99723E-01	228.00000
2.90949E+00	-3.99568E-01	229.00000
2.90898E+00	-3.99295E-01	230.00000
2.90850E+00	-3.98860E-01	231.00000
2.90801E+00	-3.98667E-01	232.00000
2.90748E+00	-3.98602E-01	233.00000
2.90699E+00	-3.97961E-01	234.00000
2.90651E+00	-3.97591E-01	235.00000
2.90600E+00	-3.97361E-01	236.00000
2.90548E+00	-3.97161E-01	237.00000
2.90500E+00	-3.96414E-01	238.00000
2.90452E+00	-3.96078E-01	239.00000
2.90400E+00	-3.95966E-01	240.00000
2.90349E+00	-3.95568E-01	241.00000
2.90302E+00	-3.95155E-01	242.00000
2.90251E+00	-3.94821E-01	243.00000
2.90200E+00	-3.94683E-01	244.00000
2.90151E+00	-3.93805E-01	245.00000
2.90103E+00	-3.93420E-01	246.00000
2.90052E+00	-3.93176E-01	247.00000
2.90000E+00	-3.92969E-01	248.00000
2.89952E+00	-3.92335E-01	249.00000
2.89903E+00	-3.91877E-01	250.00000
2.89851E+00	-3.91724E-01	251.00000
2.89802E+00	-3.91165E-01	252.00000
2.89754E+00	-3.90739E-01	253.00000
2.89703E+00	-3.90429E-01	254.00000
2.89651E+00	-3.90288E-01	255.00000
2.89603E+00	-3.89414E-01	256.00000
2.89554E+00	-3.88980E-01	257.00000
2.89502E+00	-3.88836E-01	258.00000
2.89451E+00	-3.88420E-01	259.00000
2.89403E+00	-3.87742E-01	260.00000
2.89354E+00	-3.87308E-01	261.00000
2.89302E+00	-3.87163E-01	262.00000
2.89253E+00	-3.86351E-01	263.00000
2.89205E+00	-3.85769E-01	264.00000
2.89154E+00	-3.85389E-01	265.00000
2.89103E+00	-3.85222E-01	266.00000
2.89055E+00	-3.84378E-01	267.00000
2.89006E+00	-3.83829E-01	268.00000
2.88954E+00	-3.83646E-01	269.00000
2.88904E+00	-3.83114E-01	270.00000
2.88857E+00	-3.82500E-01	271.00000
2.88807E+00	-3.82016E-01	272.00000
2.88754E+00	-3.81855E-01	273.00000
2.88705E+00	-3.80935E-01	274.00000
2.88657E+00	-3.80447E-01	275.00000
2.88606E+00	-3.80121E-01	276.00000
2.88554E+00	-3.79858E-01	277.00000
2.88506E+00	-3.78986E-01	278.00000
2.88457E+00	-3.78420E-01	279.00000
2.88405E+00	-3.78231E-01	280.00000
2.88356E+00	-3.77592E-01	281.00000
2.88308E+00	-3.76878E-01	282.00000
2.88258E+00	-3.76302E-01	283.00000
2.88206E+00	-3.76110E-01	284.00000
2.88157E+00	-3.75098E-01	285.00000
2.88109E+00	-3.74534E-01	286.00000
2.88057E+00	-3.74345E-01	287.00000
2.88006E+00	-3.73891E-01	288.00000
2.87959E+00	-3.73087E-01	289.00000
2.87909E+00	-3.72536E-01	290.00000
2.87857E+00	-3.72353E-01	291.00000
2.87808E+00	-3.71809E-01	292.00000
2.87757E+00	-3.71028E-01	293.00000
2.87704E+00	-3.70768E-01	294.00000
2.87655E+00	-3.69762E-01	295.00000
2.87607E+00	-3.69142E-01	296.00000
2.87555E+00	-3.68836E-01	297.00000
2.87504E+00	-3.68416E-01	298.00000
2.87457E+00	-3.67444E-01	299.00000
2.87407E+00	-3.66820E-01	300.00000
2.87355E+00	-3.66612E-01	301.00000
2.87306E+00	-3.65891E-01	302.00000
2.87259E+00	-3.65196E-01	303.00000
2.87208E+00	-3.64604E-01	304.00000
2.87156E+00	-3.64407E-01	305.00000
2.87107E+00	-3.63321E-01	306.00000
2.87059E+00	-3.62611E-01	307.00000
2.87007E+00	-3.62375E-01	308.00000
2.86956E+00	-3.61936E-01	309.00000
2.86909E+00	-3.61191E-01	310.00000
2.86859E+00	-3.60568E-01	311.00000
2.86807E+00	-3.60360E-01	312.00000
2.86758E+00	-3.59447E-01	313.00000
2.86709E+00	-3.58855E-01	314.00000
2.86657E+00	-3.58396E-01	315.00000
2.86606E+00	-3.58138E-01	316.00000
2.86558E+00	-3.57108E-01	317.00000
2.86509E+00	-3.56405E-01	318.00000
2.86458E+00	-3.56171E-01	319.00000
2.86408E+00	-3.55461E-01	320.00000
2.86360E+00	-3.54615E-01	321.00000
2.86310E+00	-3.53966E-01	322.00000
2.86259E+00	-3.53750E-01	323.00000
2.86210E+00	-3.52778E-01	324.00000
2.86161E+00	-3.52108E-01	325.00000
2.86110E+00	-3.51718E-01	326.00000
2.86059E+00	-3.51272E-01	327.00000
2.86012E+00	-3.50335E-01	328.00000
2.85962E+00	-3.49670E-01	329.00000
2.85909E+00	-3.49448E-01	330.00000
2.85859E+00	-3.48575E-01	331.00000
2.85812E+00	-3.47877E-01	332.00000
2.85761E+00	-3.47276E-01	333.00000
2.85709E+00	-3.47064E-01	334.00000
2.85661E+00	-3.45915E-01	335.00000
2.85612E+00	-3.45185E-01	336.00000
2.85561E+00	-3.44941E-01	337.00000
2.85510E+00	-3.44396E-01	338.00000
2.85463E+00	-3.43588E-01	339.00000
2.85412E+00	-3.42955E-01	340.00000
2.85360E+00	-3.42744E-01	341.00000
2.85311E+00	-3.41723E-01	342.00000
2.85263E+00	-3.40979E-01	343.00000
2.85212E+00	-3.40507E-01	344.00000
2.85160E+00	-3.40221E-01	345.00000
2.85112E+00	-3.39129E-01	346.00000
2.85064E+00	-3.38323E-01	347.00000
2.85012E+00	-3.38054E-01	348.00000
2.84962E+00	-3.37406E-01	349.00000
2.84914E+00	-3.36599E-01	350.00000
2.84864E+00	-3.35886E-01	351.00000
2.84812E+00	-3.35648E-01	352.00000
2.84763E+00	-3.34586E-01	353.00000
2.84715E+00	-3.33821E-01	354.00000
2.84663E+00	-3.33425E-01	355.00000
2.84612E+00	-3.32981E-01	356.00000
2.84565E+00	-3.32061E-01	357.00000
2.84515E+00	-3.31351E-01	358.00000
2.84463E+00	-3.31115E-01	359.00000
2.84414E+00	-3.30137E-01	360.00000
2.84366E+00	-3.29275E-01	361.00000
2.84316E+00	-3.28605E-01	362.00000
2.84264E+00	-3.28381E-01	363.00000
2.84216E+00	-3.27243E-01	364.00000
2.84168E+00	-3.26406E-01	365.00000
2.84116E+00	-3.26126E-01	366.00000
2.84066E+00	-3.25501E-01	367.00000
2.84018E+00	-3.24736E-01	368.00000
2.83968E+00	-3.24170E-01	369.00000
2.83915E+00	-3.23982E-01	370.00000
2.83866E+00	-3.22936E-01	371.00000
2.83819E+00	-3.22146E-01	372.00000
2.83767E+00	-3.21637E-01	373.00000
2.83715E+00	-3.21335E-01	374.00000
2.83668E+00	-3.20300E-01	375.00000
2.83619E+00	-3.19456E-01	376.00000
2.83567E+00	-3.19174E-01	377.00000
2.83517E+00	-3.18413E-01	378.00000
2.83470E+00	-3.17651E-01	379.00000
2.83419E+00	-3.16969E-01	380.00000
2.83367E+00	-3.16742E-01	381.00000
2.83318E+00	-3.15595E-01	382.00000
2.83270E+00	-3.14813E-01	383.00000
2.83219E+00	-3.14441E-01	384.00000
2.83167E+00	-3.14046E-01	385.00000
2.83119E+00	-3.13151E-01	386.00000
2.83070E+00	-3.12453E-01	387.00000
2.83018E+00	-3.12220E-01	388.00000
2.82968E+00	-3.11331E-01	389.00000
2.82921E+00	-3.10523E-01	390.00000
2.82870E+00	-3.09855E-01	391.00000
2.82819E+00	-3.09583E-01	392.00000
2.82770E+00	-3.08480E-01	393.00000
2.82721E+00	-3.07722E-01	394.00000
2.82669E+00	-3.07469E-01	395.00000
2.82619E+00	-3.06855E-01	396.00000
2.82572E+00	-3.06014E-01	397.00000
2.82522E+00	-3.05330E-01	398.00000
2.82469E+00	-3.05102E-01	399.00000
2.82421E+00	-3.03998E-01	400.00000
2.82373E+00	-3.03215E-01	401.00000
2.82322E+00	-3.02742E-01	402.00000
2.82270E+00	-3.02461E-01	403.00000
2.82222E+00	-3.01400E-01	404.00000
2.82173E+00	-3.00583E-01	405.00000
2.82122E+00	-3.00310E-01	406.00000
2.82071E+00	-2.99597E-01	407.00000
2.82023E+00	-2.98852E-01	408.00000
2.81973E+00	-2.98188E-01	409.00000
2.81920E+00	-2.97966E-01	410.00000
2.81872E+00	-2.96842E-01	411.00000
2.81824E+00	-2.96058E-01	412.00000
2.81772E+00	-2.95701E-01	413.00000
2.81721E+00	-2.95226E-01	414.00000
2.81674E+00	-2.94318E-01	415.00000
2.81624E+00	-2.93599E-01	416.00000
2.81572E+00	-2.93360E-01	417.00000
2.81523E+00	-2.92373E-01	418.00000
2.81475E+00	-2.91611E-01	419.00000
2.81424E+00	-2.91025E-01	420.00000
2.81372E+00	-2.90789E-01	421.00000
2.81324E+00	-2.89677E-01	422.00000
2.81275E+00	-2.88922E-01	423.00000
2.81223E+00	-2.88671E-01	424.00000
2.81173E+00	-2.88068E-01	425.00000
2.81126E+00	-2.87236E-01	426.00000
2.81075E+00	-2.86543E-01	427.00000
2.81023E+00	-2.86312E-01	428.00000
2.80974E+00	-2.85259E-01	429.00000
2.80926E+00	-2.84553E-01	430.00000
2.80875E+00	-2.84138E-01	431.00000
2.80823E+00	-2.83799E-01	432.00000
2.80775E+00	-2.82771E-01	433.00000
2.80726E+00	-2.81933E-01	434.00000
2.80674E+00	-2.81654E-01	435.00000
2.80625E+00	-2.80781E-01	436.00000
2.80577E+00	-2.79987E-01	437.00000
2.80526E+00	-2.79333E-01	438.00000
2.80475E+00	-2.79056E-01	439.00000
2.80427E+00	-2.77849E-01	440.00000
2.80378E+00	-2.77020E-01	441.00000
2.80326E+00	-2.76744E-01	442.00000
2.80275E+00	-2.76267E-01	443.00000
2.80228E+00	-2.75481E-01	444.00000
2.80179E+00	-2.74815E-01	445.00000
2.80126E+00	-2.74594E-01	446.00000
2.80077E+00	-2.73660E-01	447.00000
2.80029E+00	-2.72982E-01	448.00000
2.79978E+00	-2.72436E-01	449.00000
2.79925E+00	-2.72150E-01	450.00000
2.79878E+00	-2.71068E-01	451.00000
2.79828E+00	-2.70306E-01	452.00000
2.79776E+00	-2.70052E-01	453.00000
2.79727E+00	-2.69336E-01	454.00000
2.79679E+00	-2.68490E-01	455.00000
2.79629E+00	-2.67801E-01	456.00000
2.79577E+00	-2.67571E-01	457.00000
2.79529E+00	-2.66563E-01	458.00000
2.79481E+00	-2.65903E-01	459.00000
2.79429E+00	-2.65548E-01	460.00000
2.79377E+00	-2.65142E-01	461.00000
2.79329E+00	-2.64249E-01	462.00000
2.79279E+00	-2.63595E-01	463.00000
2.79228E+00	-2.63378E-01	464.00000
2.79179E+00	-2.62477E-01	465.00000
2.79131E+00	-2.61680E-01	466.00000
2.79081E+00	-2.61019E-01	467.00000
2.79028E+00	-2.60798E-01	468.00000
2.78980E+00	-2.59722E-01	469.00000
2.78931E+00	-2.59032E-01	470.00000
2.78879E+00	-2.58787E-01	471.00000
2.78828E+00	-2.58253E-01	472.00000
2.78781E+00	-2.57379E-01	473.00000
2.78731E+00	-2.56637E-01	474.00000
2.78679E+00	-2.56390E-01	475.00000
2.78630E+00	-2.55376E-01	476.00000
2.78583E+00	-2.54630E-01	477.00000
2.78531E+00	-2.54086E-01	478.00000
2.78480E+00	-2.53768E-01	479.00000
2.78432E+00	-2.52744E-01	480.00000
2.78383E+00	-2.52063E-01	481.00000
2.78331E+00	-2.51836E-01	482.00000
2.78281E+00	-2.51136E-01	483.00000
2.78234E+00	-2.50383E-01	484.00000
2.78183E+00	-2.49757E-01	485.00000
2.78131E+00	-2.49549E-01	486.00000
2.78083E+00	-2.48420E-01	487.00000
2.78035E+00	-2.47712E-01	488.00000
2.77983E+00	-2.47353E-01	489.00000
2.77932E+00	-2.47009E-01	490.00000
2.77884E+00	-2.46154E-01	491.00000
2.77834E+00	-2.45466E-01	492.00000
2.77782E+00	-2.45237E-01	493.00000
2.77733E+00	-2.44339E-01	494.00000
2.77686E+00	-2.43598E-01	495.00000
2.77635E+00	-2.42971E-01	496.00000
2.77583E+00	-2.42762E-01	497.00000
2.77535E+00	-2.41698E-01	498.00000
2.77486E+00	-2.41021E-01	499.00000
2.77434E+00	-2.40795E-01	500.00000
2.77383E+00	-2.40315E-01	501.00000
2.77336E+00	-2.39575E-01	502.00000
2.77286E+00	-2.38969E-01	503.00000
2.77233E+00	-2.38766E-01	504.00000
2.77185E+00	-2.37784E-01	505.00000
2.77137E+00	-2.37065E-01	506.00000
2.77085E+00	-2.36602E-01	507.00000
2.77034E+00	-2.36275E-01	508.00000
2.76986E+00	-2.35316E-01	509.00000
2.76937E+00	-2.34633E-01	510.00000
2.76885E+00	-2.34405E-01	511.00000
2.76835E+00	-2.33677E-01	512.00000
2.76788E+00	-2.32959E-01	513.00000
2.76737E+00	-2.32352E-01	514.00000
2.76685E+00	-2.32150E-01	515.00000
2.76637E+00	-2.31079E-01	516.00000
2.76589E+00	-2.30314E-01	517.00000
2.76537E+00	-2.29972E-01	518.00000
2.76487E+00	-2.29495E-01	519.00000
2.76439E+00	-2.28665E-01	520.00000
2.76389E+00	-2.28021E-01	521.00000
2.76337E+00	-2.27806E-01	522.00000
2.76288E+00	-2.26911E-01	523.00000
2.76241E+00	-2.26281E-01	524.00000
2.76190E+00	-2.25743E-01	525.00000
2.76137E+00	-2.25563E-01	526.00000
2.76089E+00	-2.24572E-01	527.00000
2.76040E+00	-2.23910E-01	528.00000
2.75988E+00	-2.23690E-01	529.00000
2.75938E+00	-2.23128E-01	530.00000
2.75890E+00	-2.22387E-01	531.00000
2.75841E+00	-2.21755E-01	532.00000
2.75789E+00	-2.21545E-01	533.00000
2.75740E+00	-2.20551E-01	534.00000
2.75692E+00	-2.19848E-01	535.00000
2.75641E+00	-2.19369E-01	536.00000
2.75590E+00	-2.19082E-01	537.00000
2.75542E+00	-2.18223E-01	538.00000
2.75492E+00	-2.17614E-01	539.00000
2.75440E+00	-2.17411E-01	540.00000
2.75390E+00	-2.16673E-01	541.00000
2.75343E+00	-2.16014E-01	542.00000
2.75292E+00	-2.15415E-01	543.00000
2.75241E+00	-2.15215E-01	544.00000
2.75193E+00	-2.14151E-01	545.00000
2.75144E+00	-2.13527E-01	546.00000
2.75092E+00	-2.13270E-01	547.00000
2.75041E+00	-2.12849E-01	548.00000
2.74993E+00	-2.12097E-01	549.00000
2.74944E+00	-2.11532E-01	550.00000
2.74891E+00	-2.11343E-01	551.00000
2.74842E+00	-2.10414E-01	552.00000
2.74795E+00	-2.09693E-01	553.00000
2.74744E+00	-2.09149E-01	554.00000
2.74692E+00	-2.08922E-01	555.00000
2.74644E+00	-2.07928E-01	556.00000
2.74595E+00	-2.07309E-01	557.00000
2.74543E+00	-2.07102E-01	558.00000
2.74493E+00	-2.06577E-01	559.00000
2.74446E+00	-2.05839E-01	560.00000
2.74396E+00	-2.05242E-01	561.00000
2.74344E+00	-2.05043E-01	562.00000
2.74295E+00	-2.04060E-01	563.00000
2.74247E+00	-2.03365E-01	564.00000
2.74196E+00	-2.03005E-01	565.00000
2.74145E+00	-2.02662E-01	566.00000
2.74097E+00	-2.01900E-01	567.00000
2.74047E+00	-2.01383E-01	568.00000
2.73995E+00	-2.01211E-01	569.00000
2.73945E+00	-2.00482E-01	570.00000
2.73898E+00	-1.99843E-01	571.00000
2.73847E+00	-1.99220E-01	572.00000
2.73796E+00	-1.99012E-01	573.00000
