E(V)	i(A/cm²)	T(s)
3.04636E+00	-1.77764E-01	0.00000
3.04612E+00	-1.78926E-01	1.00000
3.04561E+00	-1.83343E-01	2.00000
3.04513E+00	-1.86902E-01	3.00000
3.04463E+00	-1.91337E-01	4.00000
3.04411E+00	-1.96235E-01	5.00000
3.04362E+00	-2.00066E-01	6.00000
3.04315E+00	-2.03669E-01	7.00000
3.04263E+00	-2.08358E-01	8.00000
3.04212E+00	-2.12891E-01	9.00000
3.04164E+00	-2.16313E-01	10.00000
3.04115E+00	-2.20327E-01	11.00000
3.04063E+00	-2.24921E-01	12.00000
3.04013E+00	-2.28714E-01	13.00000
3.03966E+00	-2.31790E-01	14.00000
3.03915E+00	-2.35807E-01	15.00000
3.03863E+00	-2.40186E-01	16.00000
3.03815E+00	-2.43357E-01	17.00000
3.03767E+00	-2.46516E-01	18.00000
3.03715E+00	-2.50674E-01	19.00000
3.03664E+00	-2.54534E-01	20.00000
3.03616E+00	-2.57319E-01	21.00000
3.03567E+00	-2.60809E-01	22.00000
3.03515E+00	-2.64853E-01	23.00000
3.03465E+00	-2.67943E-01	24.00000
3.03417E+00	-2.70564E-01	25.00000
3.03366E+00	-2.74141E-01	26.00000
3.03314E+00	-2.77810E-01	27.00000
3.03266E+00	-2.80360E-01	28.00000
3.03217E+00	-2.83224E-01	29.00000
3.03165E+00	-2.86799E-01	30.00000
3.03115E+00	-2.89738E-01	31.00000
3.03068E+00	-2.91873E-01	32.00000
3.03017E+00	-2.94961E-01	33.00000
3.02965E+00	-2.98408E-01	34.00000
3.02917E+00	-3.00728E-01	35.00000
3.02869E+00	-3.02847E-01	36.00000
3.02818E+00	-3.05971E-01	37.00000
3.02766E+00	-3.09099E-01	38.00000
3.02719E+00	-3.11084E-01	39.00000
3.02669E+00	-3.13597E-01	40.00000
3.02616E+00	-3.16678E-01	41.00000
3.02567E+00	-3.18871E-01	42.00000
3.02519E+00	-3.20633E-01	43.00000
3.02468E+00	-3.23454E-01	44.00000
3.02416E+00	-3.26411E-01	45.00000
3.02368E+00	-3.28193E-01	46.00000
3.02320E+00	-3.30090E-01	47.00000
3.02268E+00	-3.32900E-01	48.00000
3.02217E+00	-3.35369E-01	49.00000
3.02169E+00	-3.36827E-01	50.00000
3.02120E+00	-3.38990E-01	51.00000
3.02067E+00	-3.41716E-01	52.00000
3.02018E+00	-3.43553E-01	53.00000
3.01970E+00	-3.45029E-01	54.00000
3.01919E+00	-3.47462E-01	55.00000
3.01868E+00	-3.49876E-01	56.00000
3.01820E+00	-3.51208E-01	57.00000
3.01771E+00	-3.52895E-01	58.00000
3.01719E+00	-3.55356E-01	59.00000
3.01669E+00	-3.57343E-01	60.00000
3.01622E+00	-3.58485E-01	61.00000
3.01571E+00	-3.60528E-01	62.00000
3.01519E+00	-3.62996E-01	63.00000
3.01471E+00	-3.64353E-01	64.00000
3.01423E+00	-3.65581E-01	65.00000
3.01372E+00	-3.67741E-01	66.00000
3.01320E+00	-3.69767E-01	67.00000
3.01273E+00	-3.70755E-01	68.00000
3.01222E+00	-3.72443E-01	69.00000
3.01170E+00	-3.74710E-01	70.00000
3.01121E+00	-3.76031E-01	71.00000
3.01074E+00	-3.76874E-01	72.00000
3.01023E+00	-3.78758E-01	73.00000
3.00971E+00	-3.80857E-01	74.00000
3.00924E+00	-3.81772E-01	75.00000
3.00875E+00	-3.82933E-01	76.00000
3.00823E+00	-3.85050E-01	77.00000
3.00772E+00	-3.86686E-01	78.00000
3.00724E+00	-3.87393E-01	79.00000
3.00674E+00	-3.88903E-01	80.00000
3.00622E+00	-3.90889E-01	81.00000
3.00573E+00	-3.91906E-01	82.00000
3.00525E+00	-3.92605E-01	83.00000
3.00474E+00	-3.94288E-01	84.00000
3.00423E+00	-3.96056E-01	85.00000
3.00375E+00	-3.96749E-01	86.00000
3.00326E+00	-3.97835E-01	87.00000
3.00273E+00	-3.99712E-01	88.00000
3.00223E+00	-4.00986E-01	89.00000
3.00176E+00	-4.01477E-01	90.00000
3.00125E+00	-4.02883E-01	91.00000
3.00073E+00	-4.04618E-01	92.00000
3.00025E+00	-4.05289E-01	93.00000
2.99977E+00	-4.05928E-01	94.00000
2.99926E+00	-4.07373E-01	95.00000
2.99875E+00	-4.08649E-01	96.00000
2.99828E+00	-4.09075E-01	97.00000
2.99778E+00	-4.10159E-01	98.00000
2.99725E+00	-4.11763E-01	99.00000
2.99676E+00	-4.12693E-01	100.00000
2.99629E+00	-4.13048E-01	101.00000
2.99578E+00	-4.14375E-01	102.00000
2.99526E+00	-4.15747E-01	103.00000
2.99478E+00	-4.16204E-01	104.00000
2.99430E+00	-4.16903E-01	105.00000
2.99378E+00	-4.18352E-01	106.00000
2.99327E+00	-4.19382E-01	107.00000
2.99280E+00	-4.19726E-01	108.00000
2.99229E+00	-4.20806E-01	109.00000
2.99177E+00	-4.22126E-01	110.00000
2.99128E+00	-4.22690E-01	111.00000
2.99080E+00	-4.22970E-01	112.00000
2.99029E+00	-4.24055E-01	113.00000
2.98978E+00	-4.25136E-01	114.00000
2.98930E+00	-4.25496E-01	115.00000
2.98881E+00	-4.26320E-01	116.00000
2.98828E+00	-4.27605E-01	117.00000
2.98778E+00	-4.28288E-01	118.00000
2.98731E+00	-4.28516E-01	119.00000
2.98680E+00	-4.29512E-01	120.00000
2.98628E+00	-4.30568E-01	121.00000
2.98580E+00	-4.30920E-01	122.00000
2.98532E+00	-4.31196E-01	123.00000
2.98480E+00	-4.32163E-01	124.00000
2.98429E+00	-4.32901E-01	125.00000
2.98381E+00	-4.33148E-01	126.00000
2.98332E+00	-4.33973E-01	127.00000
2.98280E+00	-4.35043E-01	128.00000
2.98231E+00	-4.35365E-01	129.00000
2.98183E+00	-4.35472E-01	130.00000
2.98132E+00	-4.36252E-01	131.00000
2.98080E+00	-4.37058E-01	132.00000
2.98032E+00	-4.37326E-01	133.00000
2.97984E+00	-4.37764E-01	134.00000
2.97933E+00	-4.38658E-01	135.00000
2.97882E+00	-4.39056E-01	136.00000
2.97835E+00	-4.39188E-01	137.00000
2.97784E+00	-4.40012E-01	138.00000
2.97732E+00	-4.40934E-01	139.00000
2.97683E+00	-4.41040E-01	140.00000
2.97635E+00	-4.41076E-01	141.00000
2.97584E+00	-4.41794E-01	142.00000
2.97532E+00	-4.42466E-01	143.00000
2.97485E+00	-4.42690E-01	144.00000
2.97436E+00	-4.43189E-01	145.00000
2.97384E+00	-4.43933E-01	146.00000
2.97333E+00	-4.44074E-01	147.00000
2.97285E+00	-4.44121E-01	148.00000
2.97235E+00	-4.44805E-01	149.00000
2.97183E+00	-4.45455E-01	150.00000
2.97135E+00	-4.45672E-01	151.00000
2.97087E+00	-4.45789E-01	152.00000
2.97035E+00	-4.46416E-01	153.00000
2.96984E+00	-4.46649E-01	154.00000
2.96937E+00	-4.46762E-01	155.00000
2.96887E+00	-4.47405E-01	156.00000
2.96834E+00	-4.48016E-01	157.00000
2.96785E+00	-4.47848E-01	158.00000
2.96737E+00	-4.47902E-01	159.00000
2.96686E+00	-4.48343E-01	160.00000
2.96635E+00	-4.48661E-01	161.00000
2.96587E+00	-4.48767E-01	162.00000
2.96538E+00	-4.48987E-01	163.00000
2.96486E+00	-4.49415E-01	164.00000
2.96436E+00	-4.49376E-01	165.00000
2.96388E+00	-4.49506E-01	166.00000
2.96338E+00	-4.49971E-01	167.00000
2.96286E+00	-4.50301E-01	168.00000
2.96237E+00	-4.50147E-01	169.00000
2.96189E+00	-4.50206E-01	170.00000
2.96138E+00	-4.50477E-01	171.00000
2.96087E+00	-4.50579E-01	172.00000
2.96039E+00	-4.50703E-01	173.00000
2.95990E+00	-4.51024E-01	174.00000
2.95938E+00	-4.51353E-01	175.00000
2.95888E+00	-4.51208E-01	176.00000
2.95840E+00	-4.51269E-01	177.00000
2.95790E+00	-4.51581E-01	178.00000
2.95738E+00	-4.51706E-01	179.00000
2.95690E+00	-4.51651E-01	180.00000
2.95642E+00	-4.51674E-01	181.00000
2.95590E+00	-4.51741E-01	182.00000
2.95539E+00	-4.51767E-01	183.00000
2.95492E+00	-4.51798E-01	184.00000
2.95441E+00	-4.52103E-01	185.00000
2.95389E+00	-4.52215E-01	186.00000
2.95340E+00	-4.52008E-01	187.00000
2.95292E+00	-4.51976E-01	188.00000
2.95241E+00	-4.52059E-01	189.00000
2.95190E+00	-4.52076E-01	190.00000
2.95142E+00	-4.52078E-01	191.00000
2.95093E+00	-4.52085E-01	192.00000
2.95041E+00	-4.52088E-01	193.00000
2.94991E+00	-4.52010E-01	194.00000
2.94943E+00	-4.51985E-01	195.00000
2.94892E+00	-4.52008E-01	196.00000
2.94841E+00	-4.52007E-01	197.00000
2.94793E+00	-4.51723E-01	198.00000
2.94745E+00	-4.51628E-01	199.00000
2.94693E+00	-4.51596E-01	200.00000
2.94641E+00	-4.51554E-01	201.00000
2.94594E+00	-4.51529E-01	202.00000
2.94544E+00	-4.51707E-01	203.00000
2.94492E+00	-4.51758E-01	204.00000
2.94442E+00	-4.51434E-01	205.00000
2.94394E+00	-4.51344E-01	206.00000
2.94344E+00	-4.51205E-01	207.00000
2.94292E+00	-4.51129E-01	208.00000
2.94244E+00	-4.50752E-01	209.00000
2.94195E+00	-4.50723E-01	210.00000
2.94144E+00	-4.50587E-01	211.00000
2.94094E+00	-4.50292E-01	212.00000
2.94047E+00	-4.50142E-01	213.00000
2.93996E+00	-4.50146E-01	214.00000
2.93944E+00	-4.50097E-01	215.00000
2.93894E+00	-4.49609E-01	216.00000
2.93847E+00	-4.49478E-01	217.00000
2.93796E+00	-4.49224E-01	218.00000
2.93744E+00	-4.49096E-01	219.00000
2.93697E+00	-4.48687E-01	220.00000
2.93647E+00	-4.48639E-01	221.00000
2.93595E+00	-4.48569E-01	222.00000
2.93545E+00	-4.48235E-01	223.00000
2.93497E+00	-4.48097E-01	224.00000
2.93446E+00	-4.47970E-01	225.00000
2.93394E+00	-4.47882E-01	226.00000
2.93345E+00	-4.47200E-01	227.00000
2.93298E+00	-4.46949E-01	228.00000
2.93246E+00	-4.46764E-01	229.00000
2.93195E+00	-4.46494E-01	230.00000
2.93148E+00	-4.46104E-01	231.00000
2.93098E+00	-4.46033E-01	232.00000
2.93046E+00	-4.46010E-01	233.00000
2.92996E+00	-4.45501E-01	234.00000
2.92948E+00	-4.45227E-01	235.00000
2.92898E+00	-4.44936E-01	236.00000
2.92846E+00	-4.44748E-01	237.00000
2.92798E+00	-4.43990E-01	238.00000
2.92749E+00	-4.43697E-01	239.00000
2.92697E+00	-4.43600E-01	240.00000
2.92647E+00	-4.43140E-01	241.00000
2.92600E+00	-4.42774E-01	242.00000
2.92549E+00	-4.42667E-01	243.00000
2.92497E+00	-4.42537E-01	244.00000
2.92448E+00	-4.41786E-01	245.00000
2.92400E+00	-4.41405E-01	246.00000
2.92349E+00	-4.41141E-01	247.00000
2.92297E+00	-4.40929E-01	248.00000
2.92249E+00	-4.40267E-01	249.00000
2.92200E+00	-4.39763E-01	250.00000
2.92149E+00	-4.39595E-01	251.00000
2.92100E+00	-4.38918E-01	252.00000
2.92052E+00	-4.38518E-01	253.00000
2.92001E+00	-4.38306E-01	254.00000
2.91949E+00	-4.38119E-01	255.00000
2.91901E+00	-4.37210E-01	256.00000
2.91853E+00	-4.36711E-01	257.00000
2.91802E+00	-4.36476E-01	258.00000
2.91751E+00	-4.36215E-01	259.00000
2.91703E+00	-4.35774E-01	260.00000
2.91653E+00	-4.35508E-01	261.00000
2.91600E+00	-4.35419E-01	262.00000
2.91550E+00	-4.34678E-01	263.00000
2.91503E+00	-4.34226E-01	264.00000
2.91451E+00	-4.33812E-01	265.00000
2.91400E+00	-4.33587E-01	266.00000
2.91352E+00	-4.32633E-01	267.00000
2.91303E+00	-4.32132E-01	268.00000
2.91252E+00	-4.31965E-01	269.00000
2.91202E+00	-4.31483E-01	270.00000
2.91154E+00	-4.30941E-01	271.00000
2.91103E+00	-4.30612E-01	272.00000
2.91050E+00	-4.30487E-01	273.00000
2.91002E+00	-4.29494E-01	274.00000
2.90954E+00	-4.28870E-01	275.00000
2.90903E+00	-4.28510E-01	276.00000
2.90852E+00	-4.28224E-01	277.00000
2.90804E+00	-4.27332E-01	278.00000
2.90755E+00	-4.26742E-01	279.00000
2.90703E+00	-4.26546E-01	280.00000
2.90653E+00	-4.25958E-01	281.00000
2.90606E+00	-4.25427E-01	282.00000
2.90555E+00	-4.24950E-01	283.00000
2.90503E+00	-4.24791E-01	284.00000
2.90454E+00	-4.23702E-01	285.00000
2.90406E+00	-4.23112E-01	286.00000
2.90354E+00	-4.22878E-01	287.00000
2.90304E+00	-4.22419E-01	288.00000
2.90256E+00	-4.21594E-01	289.00000
2.90207E+00	-4.21028E-01	290.00000
2.90155E+00	-4.20839E-01	291.00000
2.90105E+00	-4.19995E-01	292.00000
2.90057E+00	-4.19098E-01	293.00000
2.90006E+00	-4.18452E-01	294.00000
2.89954E+00	-4.17876E-01	295.00000
2.89906E+00	-4.17377E-01	296.00000
2.89854E+00	-4.17079E-01	297.00000
2.89802E+00	-4.16756E-01	298.00000
2.89755E+00	-4.15881E-01	299.00000
2.89705E+00	-4.15301E-01	300.00000
2.89653E+00	-4.15107E-01	301.00000
2.89603E+00	-4.14393E-01	302.00000
2.89555E+00	-4.13760E-01	303.00000
2.89504E+00	-4.13153E-01	304.00000
2.89452E+00	-4.12950E-01	305.00000
2.89404E+00	-4.11743E-01	306.00000
2.89356E+00	-4.11025E-01	307.00000
2.89304E+00	-4.10690E-01	308.00000
2.89253E+00	-4.10283E-01	309.00000
2.89206E+00	-4.09446E-01	310.00000
2.89156E+00	-4.08800E-01	311.00000
2.89104E+00	-4.08585E-01	312.00000
2.89055E+00	-4.07647E-01	313.00000
2.89006E+00	-4.06942E-01	314.00000
2.88955E+00	-4.06392E-01	315.00000
2.88904E+00	-4.06076E-01	316.00000
2.88857E+00	-4.04952E-01	317.00000
2.88808E+00	-4.04282E-01	318.00000
2.88756E+00	-4.04058E-01	319.00000
2.88706E+00	-4.03477E-01	320.00000
2.88658E+00	-4.02720E-01	321.00000
2.88607E+00	-4.02027E-01	322.00000
2.88555E+00	-4.01796E-01	323.00000
2.88506E+00	-4.00572E-01	324.00000
2.88459E+00	-3.99680E-01	325.00000
2.88407E+00	-3.99228E-01	326.00000
2.88356E+00	-3.98772E-01	327.00000
2.88308E+00	-3.97681E-01	328.00000
2.88259E+00	-3.96915E-01	329.00000
2.88208E+00	-3.96660E-01	330.00000
2.88158E+00	-3.95816E-01	331.00000
2.88110E+00	-3.95119E-01	332.00000
2.88059E+00	-3.94516E-01	333.00000
2.88007E+00	-3.94314E-01	334.00000
2.87959E+00	-3.93008E-01	335.00000
2.87911E+00	-3.92209E-01	336.00000
2.87859E+00	-3.91943E-01	337.00000
2.87808E+00	-3.91464E-01	338.00000
2.87761E+00	-3.90624E-01	339.00000
2.87711E+00	-3.89952E-01	340.00000
2.87659E+00	-3.89728E-01	341.00000
2.87609E+00	-3.88722E-01	342.00000
2.87561E+00	-3.87931E-01	343.00000
2.87510E+00	-3.87296E-01	344.00000
2.87459E+00	-3.86924E-01	345.00000
2.87411E+00	-3.85764E-01	346.00000
2.87362E+00	-3.84958E-01	347.00000
2.87310E+00	-3.84690E-01	348.00000
2.87260E+00	-3.83952E-01	349.00000
2.87212E+00	-3.83126E-01	350.00000
2.87162E+00	-3.82364E-01	351.00000
2.87110E+00	-3.82109E-01	352.00000
2.87061E+00	-3.80907E-01	353.00000
2.87013E+00	-3.80103E-01	354.00000
2.86961E+00	-3.79699E-01	355.00000
2.86910E+00	-3.79212E-01	356.00000
2.86863E+00	-3.78043E-01	357.00000
2.86813E+00	-3.77265E-01	358.00000
2.86761E+00	-3.77006E-01	359.00000
2.86711E+00	-3.76201E-01	360.00000
2.86664E+00	-3.75353E-01	361.00000
2.86613E+00	-3.74641E-01	362.00000
2.86561E+00	-3.74357E-01	363.00000
2.86513E+00	-3.73077E-01	364.00000
2.86464E+00	-3.72181E-01	365.00000
2.86413E+00	-3.71883E-01	366.00000
2.86362E+00	-3.71283E-01	367.00000
2.86314E+00	-3.70277E-01	368.00000
2.86265E+00	-3.69431E-01	369.00000
2.86213E+00	-3.69149E-01	370.00000
2.86164E+00	-3.68039E-01	371.00000
2.86116E+00	-3.67121E-01	372.00000
2.86064E+00	-3.66505E-01	373.00000
2.86013E+00	-3.66099E-01	374.00000
2.85965E+00	-3.65004E-01	375.00000
2.85916E+00	-3.64211E-01	376.00000
2.85864E+00	-3.63947E-01	377.00000
2.85814E+00	-3.63156E-01	378.00000
2.85766E+00	-3.62208E-01	379.00000
2.85715E+00	-3.61360E-01	380.00000
2.85663E+00	-3.61042E-01	381.00000
2.85615E+00	-3.59806E-01	382.00000
2.85567E+00	-3.58910E-01	383.00000
2.85516E+00	-3.58467E-01	384.00000
2.85465E+00	-3.57967E-01	385.00000
2.85417E+00	-3.56855E-01	386.00000
2.85367E+00	-3.56028E-01	387.00000
2.85315E+00	-3.55753E-01	388.00000
2.85265E+00	-3.54822E-01	389.00000
2.85218E+00	-3.53985E-01	390.00000
2.85167E+00	-3.53246E-01	391.00000
2.85115E+00	-3.52944E-01	392.00000
2.85067E+00	-3.51541E-01	393.00000
2.85019E+00	-3.50506E-01	394.00000
2.84967E+00	-3.50160E-01	395.00000
2.84916E+00	-3.49457E-01	396.00000
2.84869E+00	-3.48570E-01	397.00000
2.84818E+00	-3.47803E-01	398.00000
2.84766E+00	-3.47547E-01	399.00000
2.84717E+00	-3.46340E-01	400.00000
2.84670E+00	-3.45382E-01	401.00000
2.84618E+00	-3.44799E-01	402.00000
2.84567E+00	-3.44372E-01	403.00000
2.84519E+00	-3.43235E-01	404.00000
2.84469E+00	-3.42412E-01	405.00000
2.84418E+00	-3.42138E-01	406.00000
2.84368E+00	-3.41231E-01	407.00000
2.84321E+00	-3.40190E-01	408.00000
2.84270E+00	-3.39316E-01	409.00000
2.84219E+00	-3.39025E-01	410.00000
2.84170E+00	-3.37700E-01	411.00000
2.84122E+00	-3.36795E-01	412.00000
2.84071E+00	-3.36369E-01	413.00000
2.84020E+00	-3.35880E-01	414.00000
2.83972E+00	-3.34842E-01	415.00000
2.83922E+00	-3.34005E-01	416.00000
2.83870E+00	-3.33726E-01	417.00000
2.83821E+00	-3.32710E-01	418.00000
2.83773E+00	-3.31881E-01	419.00000
2.83722E+00	-3.31239E-01	420.00000
2.83670E+00	-3.30882E-01	421.00000
2.83623E+00	-3.29572E-01	422.00000
2.83574E+00	-3.28608E-01	423.00000
2.83522E+00	-3.28287E-01	424.00000
2.83472E+00	-3.27604E-01	425.00000
2.83424E+00	-3.26688E-01	426.00000
2.83374E+00	-3.25828E-01	427.00000
2.83322E+00	-3.25541E-01	428.00000
2.83273E+00	-3.24348E-01	429.00000
2.83225E+00	-3.23445E-01	430.00000
2.83174E+00	-3.22917E-01	431.00000
2.83122E+00	-3.22461E-01	432.00000
2.83075E+00	-3.21314E-01	433.00000
2.83025E+00	-3.20464E-01	434.00000
2.82973E+00	-3.20181E-01	435.00000
2.82924E+00	-3.19248E-01	436.00000
2.82877E+00	-3.18346E-01	437.00000
2.82826E+00	-3.17592E-01	438.00000
2.82773E+00	-3.17341E-01	439.00000
2.82725E+00	-3.16027E-01	440.00000
2.82677E+00	-3.15065E-01	441.00000
2.82626E+00	-3.14628E-01	442.00000
2.82575E+00	-3.14055E-01	443.00000
2.82527E+00	-3.12973E-01	444.00000
2.82477E+00	-3.12076E-01	445.00000
2.82426E+00	-3.11777E-01	446.00000
2.82376E+00	-3.10711E-01	447.00000
2.82329E+00	-3.09834E-01	448.00000
2.82278E+00	-3.09189E-01	449.00000
2.82225E+00	-3.08890E-01	450.00000
2.82177E+00	-3.07618E-01	451.00000
2.82129E+00	-3.06606E-01	452.00000
2.82078E+00	-3.06269E-01	453.00000
2.82027E+00	-3.05546E-01	454.00000
2.81980E+00	-3.04649E-01	455.00000
2.81929E+00	-3.03855E-01	456.00000
2.81877E+00	-3.03590E-01	457.00000
2.81828E+00	-3.02379E-01	458.00000
2.81780E+00	-3.01500E-01	459.00000
2.81729E+00	-3.01056E-01	460.00000
2.81678E+00	-3.00585E-01	461.00000
2.81630E+00	-2.99449E-01	462.00000
2.81581E+00	-2.98594E-01	463.00000
2.81528E+00	-2.98308E-01	464.00000
2.81478E+00	-2.97433E-01	465.00000
2.81431E+00	-2.96615E-01	466.00000
2.81380E+00	-2.95855E-01	467.00000
2.81328E+00	-2.95561E-01	468.00000
2.81280E+00	-2.94277E-01	469.00000
2.81231E+00	-2.93381E-01	470.00000
2.81180E+00	-2.93017E-01	471.00000
2.81129E+00	-2.92442E-01	472.00000
2.81082E+00	-2.91483E-01	473.00000
2.81032E+00	-2.90656E-01	474.00000
2.80979E+00	-2.90381E-01	475.00000
2.80930E+00	-2.89298E-01	476.00000
2.80883E+00	-2.88509E-01	477.00000
2.80831E+00	-2.87923E-01	478.00000
2.80779E+00	-2.87551E-01	479.00000
2.80732E+00	-2.86216E-01	480.00000
2.80683E+00	-2.85295E-01	481.00000
2.80632E+00	-2.84988E-01	482.00000
2.80581E+00	-2.84343E-01	483.00000
2.80534E+00	-2.83548E-01	484.00000
2.80483E+00	-2.82743E-01	485.00000
2.80431E+00	-2.82475E-01	486.00000
2.80383E+00	-2.81260E-01	487.00000
2.80335E+00	-2.80495E-01	488.00000
2.80284E+00	-2.80099E-01	489.00000
2.80232E+00	-2.79653E-01	490.00000
2.80184E+00	-2.78589E-01	491.00000
2.80135E+00	-2.77837E-01	492.00000
2.80083E+00	-2.77587E-01	493.00000
2.80033E+00	-2.76688E-01	494.00000
2.79986E+00	-2.75894E-01	495.00000
2.79935E+00	-2.75225E-01	496.00000
2.79883E+00	-2.75002E-01	497.00000
2.79834E+00	-2.73744E-01	498.00000
2.79785E+00	-2.72802E-01	499.00000
2.79734E+00	-2.72476E-01	500.00000
2.79684E+00	-2.71862E-01	501.00000
2.79637E+00	-2.70963E-01	502.00000
2.79586E+00	-2.70179E-01	503.00000
2.79534E+00	-2.69918E-01	504.00000
2.79485E+00	-2.68809E-01	505.00000
2.79437E+00	-2.67997E-01	506.00000
2.79386E+00	-2.67461E-01	507.00000
2.79334E+00	-2.67167E-01	508.00000
2.79285E+00	-2.66082E-01	509.00000
2.79237E+00	-2.65260E-01	510.00000
2.79185E+00	-2.64987E-01	511.00000
2.79135E+00	-2.64199E-01	512.00000
2.79087E+00	-2.63333E-01	513.00000
2.79036E+00	-2.62646E-01	514.00000
2.78984E+00	-2.62417E-01	515.00000
2.78936E+00	-2.61282E-01	516.00000
2.78887E+00	-2.60449E-01	517.00000
2.78836E+00	-2.60019E-01	518.00000
2.78785E+00	-2.59508E-01	519.00000
2.78738E+00	-2.58478E-01	520.00000
2.78688E+00	-2.57694E-01	521.00000
2.78636E+00	-2.57432E-01	522.00000
2.78587E+00	-2.56482E-01	523.00000
2.78539E+00	-2.55666E-01	524.00000
2.78488E+00	-2.55002E-01	525.00000
2.78436E+00	-2.54726E-01	526.00000
2.78388E+00	-2.53580E-01	527.00000
2.78339E+00	-2.52782E-01	528.00000
2.78287E+00	-2.52516E-01	529.00000
2.78237E+00	-2.51895E-01	530.00000
2.78189E+00	-2.51092E-01	531.00000
2.78139E+00	-2.50393E-01	532.00000
2.78087E+00	-2.50160E-01	533.00000
2.78038E+00	-2.49029E-01	534.00000
2.77990E+00	-2.48288E-01	535.00000
2.77938E+00	-2.47873E-01	536.00000
2.77887E+00	-2.47544E-01	537.00000
2.77839E+00	-2.46408E-01	538.00000
2.77790E+00	-2.45542E-01	539.00000
2.77738E+00	-2.45253E-01	540.00000
2.77688E+00	-2.44519E-01	541.00000
2.77641E+00	-2.43727E-01	542.00000
2.77590E+00	-2.42938E-01	543.00000
2.77538E+00	-2.42675E-01	544.00000
2.77490E+00	-2.41457E-01	545.00000
2.77442E+00	-2.40724E-01	546.00000
2.77390E+00	-2.40471E-01	547.00000
2.77339E+00	-2.40009E-01	548.00000
2.77292E+00	-2.39105E-01	549.00000
2.77242E+00	-2.38389E-01	550.00000
2.77189E+00	-2.38151E-01	551.00000
2.77140E+00	-2.37221E-01	552.00000
2.77093E+00	-2.36503E-01	553.00000
2.77042E+00	-2.35893E-01	554.00000
2.76990E+00	-2.35689E-01	555.00000
2.76942E+00	-2.34538E-01	556.00000
2.76893E+00	-2.33715E-01	557.00000
2.76841E+00	-2.33441E-01	558.00000
2.76790E+00	-2.32805E-01	559.00000
2.76743E+00	-2.31973E-01	560.00000
2.76693E+00	-2.31269E-01	561.00000
2.76641E+00	-2.31034E-01	562.00000
2.76592E+00	-2.29899E-01	563.00000
2.76545E+00	-2.29075E-01	564.00000
2.76494E+00	-2.28452E-01	565.00000
2.76443E+00	-2.28089E-01	566.00000
2.76395E+00	-2.27083E-01	567.00000
2.76346E+00	-2.26402E-01	568.00000
2.76293E+00	-2.26174E-01	569.00000
2.76243E+00	-2.25392E-01	570.00000
2.76196E+00	-2.24711E-01	571.00000
2.76146E+00	-2.24059E-01	572.00000
2.76094E+00	-2.23842E-01	573.00000
