E(V)	i(A/cm²)	T(s)
3.27074E+00	-3.16729E-01	0.00000
3.27050E+00	-3.18990E-01	1.00000
3.27001E+00	-3.26071E-01	2.00000
3.26954E+00	-3.32147E-01	3.00000
3.26904E+00	-3.39520E-01	4.00000
3.26851E+00	-3.47539E-01	5.00000
3.26803E+00	-3.54455E-01	6.00000
3.26754E+00	-3.61087E-01	7.00000
3.26702E+00	-3.68974E-01	8.00000
3.26652E+00	-3.76721E-01	9.00000
3.26605E+00	-3.83059E-01	10.00000
3.26555E+00	-3.90173E-01	11.00000
3.26503E+00	-3.98309E-01	12.00000
3.26453E+00	-4.05363E-01	13.00000
3.26406E+00	-4.11685E-01	14.00000
3.26355E+00	-4.19290E-01	15.00000
3.26303E+00	-4.27107E-01	16.00000
3.26255E+00	-4.33630E-01	17.00000
3.26207E+00	-4.40137E-01	18.00000
3.26156E+00	-4.47797E-01	19.00000
3.26105E+00	-4.55250E-01	20.00000
3.26057E+00	-4.61506E-01	21.00000
3.26007E+00	-4.68412E-01	22.00000
3.25956E+00	-4.75897E-01	23.00000
3.25906E+00	-4.82514E-01	24.00000
3.25858E+00	-4.88666E-01	25.00000
3.25808E+00	-4.95868E-01	26.00000
3.25756E+00	-5.03217E-01	27.00000
3.25708E+00	-5.09363E-01	28.00000
3.25660E+00	-5.15733E-01	29.00000
3.25608E+00	-5.23083E-01	30.00000
3.25557E+00	-5.30023E-01	31.00000
3.25508E+00	-5.35886E-01	32.00000
3.25458E+00	-5.42652E-01	33.00000
3.25406E+00	-5.49994E-01	34.00000
3.25358E+00	-5.56063E-01	35.00000
3.25310E+00	-5.61904E-01	36.00000
3.25258E+00	-5.69006E-01	37.00000
3.25207E+00	-5.75927E-01	38.00000
3.25159E+00	-5.81483E-01	39.00000
3.25110E+00	-5.87642E-01	40.00000
3.25058E+00	-5.94516E-01	41.00000
3.25009E+00	-6.00693E-01	42.00000
3.24962E+00	-6.06180E-01	43.00000
3.24911E+00	-6.12767E-01	44.00000
3.24859E+00	-6.19819E-01	45.00000
3.24810E+00	-6.25463E-01	46.00000
3.24762E+00	-6.31207E-01	47.00000
3.24710E+00	-6.38077E-01	48.00000
3.24659E+00	-6.44581E-01	49.00000
3.24612E+00	-6.49835E-01	50.00000
3.24562E+00	-6.56021E-01	51.00000
3.24510E+00	-6.62867E-01	52.00000
3.24461E+00	-6.68589E-01	53.00000
3.24414E+00	-6.73878E-01	54.00000
3.24363E+00	-6.80092E-01	55.00000
3.24312E+00	-6.86480E-01	56.00000
3.24264E+00	-6.91730E-01	57.00000
3.24215E+00	-6.97515E-01	58.00000
3.24163E+00	-7.04216E-01	59.00000
3.24113E+00	-7.10234E-01	60.00000
3.24066E+00	-7.15402E-01	61.00000
3.24015E+00	-7.21474E-01	62.00000
3.23963E+00	-7.28175E-01	63.00000
3.23914E+00	-7.33670E-01	64.00000
3.23866E+00	-7.38776E-01	65.00000
3.23815E+00	-7.45043E-01	66.00000
3.23763E+00	-7.51321E-01	67.00000
3.23716E+00	-7.56427E-01	68.00000
3.23666E+00	-7.62233E-01	69.00000
3.23614E+00	-7.68845E-01	70.00000
3.23564E+00	-7.74462E-01	71.00000
3.23517E+00	-7.79169E-01	72.00000
3.23466E+00	-7.85151E-01	73.00000
3.23414E+00	-7.91464E-01	74.00000
3.23366E+00	-7.96555E-01	75.00000
3.23317E+00	-8.02019E-01	76.00000
3.23266E+00	-8.08413E-01	77.00000
3.23215E+00	-8.14251E-01	78.00000
3.23168E+00	-8.19000E-01	79.00000
3.23117E+00	-8.24722E-01	80.00000
3.23066E+00	-8.31022E-01	81.00000
3.23017E+00	-8.36296E-01	82.00000
3.22969E+00	-8.41121E-01	83.00000
3.22918E+00	-8.47211E-01	84.00000
3.22866E+00	-8.53515E-01	85.00000
3.22819E+00	-8.58233E-01	86.00000
3.22769E+00	-8.63516E-01	87.00000
3.22717E+00	-8.69909E-01	88.00000
3.22668E+00	-8.75311E-01	89.00000
3.22620E+00	-8.79935E-01	90.00000
3.22569E+00	-8.85894E-01	91.00000
3.22518E+00	-8.92090E-01	92.00000
3.22470E+00	-8.97113E-01	93.00000
3.22421E+00	-9.02219E-01	94.00000
3.22369E+00	-9.08407E-01	95.00000
3.22318E+00	-9.14416E-01	96.00000
3.22271E+00	-9.18891E-01	97.00000
3.22221E+00	-9.24219E-01	98.00000
3.22169E+00	-9.30413E-01	99.00000
3.22120E+00	-9.35607E-01	100.00000
3.22073E+00	-9.40205E-01	101.00000
3.22021E+00	-9.46083E-01	102.00000
3.21969E+00	-9.52325E-01	103.00000
3.21922E+00	-9.56979E-01	104.00000
3.21873E+00	-9.62011E-01	105.00000
3.21821E+00	-9.68240E-01	106.00000
3.21771E+00	-9.73896E-01	107.00000
3.21723E+00	-9.78621E-01	108.00000
3.21672E+00	-9.84331E-01	109.00000
3.21620E+00	-9.90460E-01	110.00000
3.21571E+00	-9.95321E-01	111.00000
3.21524E+00	-1.00005E+00	112.00000
3.21472E+00	-1.00604E+00	113.00000
3.21421E+00	-1.01196E+00	114.00000
3.21373E+00	-1.01671E+00	115.00000
3.21325E+00	-1.02182E+00	116.00000
3.21273E+00	-1.02797E+00	117.00000
3.21222E+00	-1.03349E+00	118.00000
3.21175E+00	-1.03796E+00	119.00000
3.21124E+00	-1.04359E+00	120.00000
3.21073E+00	-1.04972E+00	121.00000
3.21024E+00	-1.05451E+00	122.00000
3.20977E+00	-1.05926E+00	123.00000
3.20926E+00	-1.06534E+00	124.00000
3.20874E+00	-1.07122E+00	125.00000
3.20826E+00	-1.07588E+00	126.00000
3.20776E+00	-1.08138E+00	127.00000
3.20725E+00	-1.08744E+00	128.00000
3.20676E+00	-1.09269E+00	129.00000
3.20628E+00	-1.09732E+00	130.00000
3.20577E+00	-1.10311E+00	131.00000
3.20526E+00	-1.10921E+00	132.00000
3.20478E+00	-1.11392E+00	133.00000
3.20428E+00	-1.11914E+00	134.00000
3.20376E+00	-1.12518E+00	135.00000
3.20327E+00	-1.13072E+00	136.00000
3.20279E+00	-1.13537E+00	137.00000
3.20229E+00	-1.14109E+00	138.00000
3.20176E+00	-1.14748E+00	139.00000
3.20127E+00	-1.15246E+00	140.00000
3.20080E+00	-1.15722E+00	141.00000
3.20027E+00	-1.16338E+00	142.00000
3.19976E+00	-1.16939E+00	143.00000
3.19929E+00	-1.17399E+00	144.00000
3.19879E+00	-1.17939E+00	145.00000
3.19827E+00	-1.18547E+00	146.00000
3.19778E+00	-1.19077E+00	147.00000
3.19730E+00	-1.19568E+00	148.00000
3.19679E+00	-1.20157E+00	149.00000
3.19628E+00	-1.20778E+00	150.00000
3.19580E+00	-1.21262E+00	151.00000
3.19531E+00	-1.21768E+00	152.00000
3.19479E+00	-1.22398E+00	153.00000
3.19428E+00	-1.22989E+00	154.00000
3.19381E+00	-1.23449E+00	155.00000
3.19332E+00	-1.23991E+00	156.00000
3.19279E+00	-1.24642E+00	157.00000
3.19230E+00	-1.25181E+00	158.00000
3.19182E+00	-1.25665E+00	159.00000
3.19130E+00	-1.26288E+00	160.00000
3.19079E+00	-1.26916E+00	161.00000
3.19031E+00	-1.27398E+00	162.00000
3.18983E+00	-1.27916E+00	163.00000
3.18932E+00	-1.28529E+00	164.00000
3.18881E+00	-1.29101E+00	165.00000
3.18833E+00	-1.29588E+00	166.00000
3.18783E+00	-1.30162E+00	167.00000
3.18731E+00	-1.30804E+00	168.00000
3.18682E+00	-1.31339E+00	169.00000
3.18634E+00	-1.31842E+00	170.00000
3.18583E+00	-1.32467E+00	171.00000
3.18531E+00	-1.33092E+00	172.00000
3.18483E+00	-1.33584E+00	173.00000
3.18435E+00	-1.34122E+00	174.00000
3.18383E+00	-1.34756E+00	175.00000
3.18333E+00	-1.35317E+00	176.00000
3.18286E+00	-1.35821E+00	177.00000
3.18234E+00	-1.36457E+00	178.00000
3.18182E+00	-1.37112E+00	179.00000
3.18133E+00	-1.37637E+00	180.00000
3.18085E+00	-1.38157E+00	181.00000
3.18034E+00	-1.38796E+00	182.00000
3.17983E+00	-1.39415E+00	183.00000
3.17936E+00	-1.39903E+00	184.00000
3.17886E+00	-1.40487E+00	185.00000
3.17834E+00	-1.41141E+00	186.00000
3.17784E+00	-1.41704E+00	187.00000
3.17736E+00	-1.42227E+00	188.00000
3.17685E+00	-1.42863E+00	189.00000
3.17633E+00	-1.43506E+00	190.00000
3.17586E+00	-1.44020E+00	191.00000
3.17537E+00	-1.44575E+00	192.00000
3.17486E+00	-1.45235E+00	193.00000
3.17435E+00	-1.45840E+00	194.00000
3.17387E+00	-1.46359E+00	195.00000
3.17336E+00	-1.46996E+00	196.00000
3.17285E+00	-1.47659E+00	197.00000
3.17238E+00	-1.48180E+00	198.00000
3.17190E+00	-1.48693E+00	199.00000
3.17139E+00	-1.49361E+00	200.00000
3.17087E+00	-1.50032E+00	201.00000
3.17039E+00	-1.50564E+00	202.00000
3.16989E+00	-1.51163E+00	203.00000
3.16937E+00	-1.51848E+00	204.00000
3.16888E+00	-1.52441E+00	205.00000
3.16840E+00	-1.52962E+00	206.00000
3.16789E+00	-1.53610E+00	207.00000
3.16737E+00	-1.54294E+00	208.00000
3.16689E+00	-1.54846E+00	209.00000
3.16641E+00	-1.55414E+00	210.00000
3.16588E+00	-1.56097E+00	211.00000
3.16538E+00	-1.56727E+00	212.00000
3.16491E+00	-1.57256E+00	213.00000
3.16441E+00	-1.57888E+00	214.00000
3.16389E+00	-1.58585E+00	215.00000
3.16340E+00	-1.59188E+00	216.00000
3.16292E+00	-1.59745E+00	217.00000
3.16241E+00	-1.60434E+00	218.00000
3.16189E+00	-1.61134E+00	219.00000
3.16141E+00	-1.61695E+00	220.00000
3.16092E+00	-1.62295E+00	221.00000
3.16041E+00	-1.63004E+00	222.00000
3.15990E+00	-1.63660E+00	223.00000
3.15943E+00	-1.64220E+00	224.00000
3.15893E+00	-1.64871E+00	225.00000
3.15840E+00	-1.65587E+00	226.00000
3.15791E+00	-1.66211E+00	227.00000
3.15743E+00	-1.66784E+00	228.00000
3.15691E+00	-1.67479E+00	229.00000
3.15639E+00	-1.68179E+00	230.00000
3.15592E+00	-1.68735E+00	231.00000
3.15543E+00	-1.69356E+00	232.00000
3.15492E+00	-1.70071E+00	233.00000
3.15442E+00	-1.70716E+00	234.00000
3.15394E+00	-1.71294E+00	235.00000
3.15343E+00	-1.71987E+00	236.00000
3.15291E+00	-1.72707E+00	237.00000
3.15243E+00	-1.73293E+00	238.00000
3.15195E+00	-1.73902E+00	239.00000
3.15143E+00	-1.74627E+00	240.00000
3.15093E+00	-1.75311E+00	241.00000
3.15046E+00	-1.75866E+00	242.00000
3.14997E+00	-1.76526E+00	243.00000
3.14944E+00	-1.77285E+00	244.00000
3.14896E+00	-1.77936E+00	245.00000
3.14848E+00	-1.78541E+00	246.00000
3.14796E+00	-1.79266E+00	247.00000
3.14745E+00	-1.79971E+00	248.00000
3.14698E+00	-1.80563E+00	249.00000
3.14648E+00	-1.81228E+00	250.00000
3.14596E+00	-1.81978E+00	251.00000
3.14545E+00	-1.82672E+00	252.00000
3.14498E+00	-1.83273E+00	253.00000
3.14448E+00	-1.83986E+00	254.00000
3.14395E+00	-1.84738E+00	255.00000
3.14347E+00	-1.85357E+00	256.00000
3.14300E+00	-1.85969E+00	257.00000
3.14248E+00	-1.86715E+00	258.00000
3.14197E+00	-1.87466E+00	259.00000
3.14148E+00	-1.88088E+00	260.00000
3.14099E+00	-1.88768E+00	261.00000
3.14048E+00	-1.89514E+00	262.00000
3.13999E+00	-1.90184E+00	263.00000
3.13951E+00	-1.90805E+00	264.00000
3.13900E+00	-1.91547E+00	265.00000
3.13848E+00	-1.92334E+00	266.00000
3.13800E+00	-1.92991E+00	267.00000
3.13751E+00	-1.93646E+00	268.00000
3.13699E+00	-1.94406E+00	269.00000
3.13649E+00	-1.95128E+00	270.00000
3.13602E+00	-1.95736E+00	271.00000
3.13551E+00	-1.96466E+00	272.00000
3.13499E+00	-1.97268E+00	273.00000
3.13450E+00	-1.97931E+00	274.00000
3.13403E+00	-1.98562E+00	275.00000
3.13351E+00	-1.99332E+00	276.00000
3.13300E+00	-2.00101E+00	277.00000
3.13252E+00	-2.00735E+00	278.00000
3.13203E+00	-2.01427E+00	279.00000
3.13151E+00	-2.02209E+00	280.00000
3.13102E+00	-2.02911E+00	281.00000
3.13054E+00	-2.03541E+00	282.00000
3.13003E+00	-2.04293E+00	283.00000
3.12951E+00	-2.05089E+00	284.00000
3.12903E+00	-2.05755E+00	285.00000
3.12855E+00	-2.06421E+00	286.00000
3.12803E+00	-2.07206E+00	287.00000
3.12753E+00	-2.07939E+00	288.00000
3.12702E+00	-2.08650E+00	289.00000
3.12650E+00	-2.09466E+00	290.00000
3.12600E+00	-2.10209E+00	291.00000
3.12553E+00	-2.10833E+00	292.00000
3.12503E+00	-2.11578E+00	293.00000
3.12450E+00	-2.12410E+00	294.00000
3.12401E+00	-2.13110E+00	295.00000
3.12353E+00	-2.13775E+00	296.00000
3.12302E+00	-2.14559E+00	297.00000
3.12251E+00	-2.15329E+00	298.00000
3.12202E+00	-2.15987E+00	299.00000
3.12153E+00	-2.16715E+00	300.00000
3.12101E+00	-2.17498E+00	301.00000
3.12052E+00	-2.18202E+00	302.00000
3.12004E+00	-2.18853E+00	303.00000
3.11954E+00	-2.19621E+00	304.00000
3.11901E+00	-2.20426E+00	305.00000
3.11854E+00	-2.21099E+00	306.00000
3.11806E+00	-2.21774E+00	307.00000
3.11754E+00	-2.22575E+00	308.00000
3.11703E+00	-2.23361E+00	309.00000
3.11655E+00	-2.24035E+00	310.00000
3.11604E+00	-2.24790E+00	311.00000
3.11552E+00	-2.25609E+00	312.00000
3.11503E+00	-2.26327E+00	313.00000
3.11457E+00	-2.26976E+00	314.00000
3.11407E+00	-2.27722E+00	315.00000
3.11355E+00	-2.28512E+00	316.00000
3.11307E+00	-2.29189E+00	317.00000
3.11258E+00	-2.29892E+00	318.00000
3.11207E+00	-2.30696E+00	319.00000
3.11156E+00	-2.31451E+00	320.00000
3.11110E+00	-2.32094E+00	321.00000
3.11059E+00	-2.32847E+00	322.00000
3.11007E+00	-2.33675E+00	323.00000
3.10958E+00	-2.34377E+00	324.00000
3.10910E+00	-2.35056E+00	325.00000
3.10859E+00	-2.35856E+00	326.00000
3.10807E+00	-2.36652E+00	327.00000
3.10759E+00	-2.37324E+00	328.00000
3.10710E+00	-2.38055E+00	329.00000
3.10657E+00	-2.38878E+00	330.00000
3.10608E+00	-2.39614E+00	331.00000
3.10560E+00	-2.40276E+00	332.00000
3.10510E+00	-2.41045E+00	333.00000
3.10458E+00	-2.41855E+00	334.00000
3.10409E+00	-2.42552E+00	335.00000
3.10361E+00	-2.43241E+00	336.00000
3.10310E+00	-2.44038E+00	337.00000
3.10259E+00	-2.44804E+00	338.00000
3.10211E+00	-2.45464E+00	339.00000
3.10161E+00	-2.46226E+00	340.00000
3.10108E+00	-2.47041E+00	341.00000
3.10059E+00	-2.47754E+00	342.00000
3.10012E+00	-2.48415E+00	343.00000
3.09961E+00	-2.49211E+00	344.00000
3.09909E+00	-2.50027E+00	345.00000
3.09860E+00	-2.50706E+00	346.00000
3.09812E+00	-2.51421E+00	347.00000
3.09761E+00	-2.52207E+00	348.00000
3.09711E+00	-2.52955E+00	349.00000
3.09663E+00	-2.53625E+00	350.00000
3.09612E+00	-2.54397E+00	351.00000
3.09559E+00	-2.55218E+00	352.00000
3.09512E+00	-2.55905E+00	353.00000
3.09464E+00	-2.56571E+00	354.00000
3.09413E+00	-2.57363E+00	355.00000
3.09362E+00	-2.58140E+00	356.00000
3.09314E+00	-2.58799E+00	357.00000
3.09265E+00	-2.59529E+00	358.00000
3.09213E+00	-2.60337E+00	359.00000
3.09164E+00	-2.61073E+00	360.00000
3.09116E+00	-2.61734E+00	361.00000
3.09065E+00	-2.62515E+00	362.00000
3.09012E+00	-2.63335E+00	363.00000
3.08964E+00	-2.64022E+00	364.00000
3.08916E+00	-2.64718E+00	365.00000
3.08864E+00	-2.65521E+00	366.00000
3.08813E+00	-2.66291E+00	367.00000
3.08766E+00	-2.66943E+00	368.00000
3.08716E+00	-2.67689E+00	369.00000
3.08664E+00	-2.68498E+00	370.00000
3.08615E+00	-2.69188E+00	371.00000
3.08568E+00	-2.69836E+00	372.00000
3.08517E+00	-2.70601E+00	373.00000
3.08466E+00	-2.71391E+00	374.00000
3.08417E+00	-2.72068E+00	375.00000
3.08368E+00	-2.72780E+00	376.00000
3.08316E+00	-2.73591E+00	377.00000
3.08266E+00	-2.74332E+00	378.00000
3.08219E+00	-2.74971E+00	379.00000
3.08168E+00	-2.75736E+00	380.00000
3.08116E+00	-2.76548E+00	381.00000
3.08067E+00	-2.77229E+00	382.00000
3.08019E+00	-2.77896E+00	383.00000
3.07967E+00	-2.78678E+00	384.00000
3.07916E+00	-2.79456E+00	385.00000
3.07868E+00	-2.80110E+00	386.00000
3.07819E+00	-2.80838E+00	387.00000
3.07767E+00	-2.81650E+00	388.00000
3.07718E+00	-2.82353E+00	389.00000
3.07670E+00	-2.82988E+00	390.00000
3.07620E+00	-2.83740E+00	391.00000
3.07569E+00	-2.84520E+00	392.00000
3.07520E+00	-2.85185E+00	393.00000
3.07471E+00	-2.85857E+00	394.00000
3.07419E+00	-2.86631E+00	395.00000
3.07368E+00	-2.87388E+00	396.00000
3.07321E+00	-2.88026E+00	397.00000
3.07271E+00	-2.88754E+00	398.00000
3.07220E+00	-2.89542E+00	399.00000
3.07171E+00	-2.90227E+00	400.00000
3.07123E+00	-2.90880E+00	401.00000
3.07072E+00	-2.91632E+00	402.00000
3.07020E+00	-2.92422E+00	403.00000
3.06971E+00	-2.93101E+00	404.00000
3.06922E+00	-2.93801E+00	405.00000
3.06871E+00	-2.94567E+00	406.00000
3.06821E+00	-2.95276E+00	407.00000
3.06774E+00	-2.95901E+00	408.00000
3.06723E+00	-2.96644E+00	409.00000
3.06671E+00	-2.97448E+00	410.00000
3.06622E+00	-2.98112E+00	411.00000
3.06573E+00	-2.98776E+00	412.00000
3.06522E+00	-2.99555E+00	413.00000
3.06471E+00	-3.00316E+00	414.00000
3.06423E+00	-3.00953E+00	415.00000
3.06373E+00	-3.01665E+00	416.00000
3.06321E+00	-3.02450E+00	417.00000
3.06272E+00	-3.03121E+00	418.00000
3.06225E+00	-3.03728E+00	419.00000
3.06174E+00	-3.04468E+00	420.00000
3.06122E+00	-3.05240E+00	421.00000
3.06074E+00	-3.05873E+00	422.00000
3.06026E+00	-3.06537E+00	423.00000
3.05974E+00	-3.07306E+00	424.00000
3.05924E+00	-3.08005E+00	425.00000
3.05876E+00	-3.08615E+00	426.00000
3.05826E+00	-3.09346E+00	427.00000
3.05774E+00	-3.10113E+00	428.00000
3.05725E+00	-3.10761E+00	429.00000
3.05677E+00	-3.11397E+00	430.00000
3.05626E+00	-3.12145E+00	431.00000
3.05575E+00	-3.12881E+00	432.00000
3.05527E+00	-3.13490E+00	433.00000
3.05478E+00	-3.14169E+00	434.00000
3.05426E+00	-3.14936E+00	435.00000
3.05377E+00	-3.15614E+00	436.00000
3.05329E+00	-3.16226E+00	437.00000
3.05278E+00	-3.16963E+00	438.00000
3.05226E+00	-3.17730E+00	439.00000
3.05177E+00	-3.18358E+00	440.00000
3.05130E+00	-3.18984E+00	441.00000
3.05078E+00	-3.19732E+00	442.00000
3.05028E+00	-3.20441E+00	443.00000
3.04981E+00	-3.21033E+00	444.00000
3.04930E+00	-3.21725E+00	445.00000
3.04878E+00	-3.22481E+00	446.00000
3.04829E+00	-3.23126E+00	447.00000
3.04781E+00	-3.23704E+00	448.00000
3.04730E+00	-3.24434E+00	449.00000
3.04678E+00	-3.25195E+00	450.00000
3.04630E+00	-3.25805E+00	451.00000
3.04581E+00	-3.26462E+00	452.00000
3.04529E+00	-3.27211E+00	453.00000
3.04478E+00	-3.27892E+00	454.00000
3.04431E+00	-3.28464E+00	455.00000
3.04381E+00	-3.29130E+00	456.00000
3.04330E+00	-3.29849E+00	457.00000
3.04282E+00	-3.30458E+00	458.00000
3.04233E+00	-3.31048E+00	459.00000
3.04182E+00	-3.31774E+00	460.00000
3.04131E+00	-3.32515E+00	461.00000
3.04083E+00	-3.33111E+00	462.00000
3.04033E+00	-3.33771E+00	463.00000
3.03981E+00	-3.34507E+00	464.00000
3.03931E+00	-3.35157E+00	465.00000
3.03884E+00	-3.35719E+00	466.00000
3.03834E+00	-3.36399E+00	467.00000
3.03781E+00	-3.37138E+00	468.00000
3.03733E+00	-3.37726E+00	469.00000
3.03685E+00	-3.38329E+00	470.00000
3.03633E+00	-3.39055E+00	471.00000
3.03583E+00	-3.39723E+00	472.00000
3.03536E+00	-3.40271E+00	473.00000
3.03486E+00	-3.40931E+00	474.00000
3.03433E+00	-3.41662E+00	475.00000
3.03384E+00	-3.42270E+00	476.00000
3.03336E+00	-3.42834E+00	477.00000
3.03285E+00	-3.43527E+00	478.00000
3.03233E+00	-3.44235E+00	479.00000
3.03186E+00	-3.44801E+00	480.00000
3.03137E+00	-3.45404E+00	481.00000
3.03085E+00	-3.46118E+00	482.00000
3.03035E+00	-3.46760E+00	483.00000
3.02987E+00	-3.47304E+00	484.00000
3.02937E+00	-3.47968E+00	485.00000
3.02885E+00	-3.48684E+00	486.00000
3.02837E+00	-3.49269E+00	487.00000
3.02788E+00	-3.49829E+00	488.00000
3.02737E+00	-3.50498E+00	489.00000
3.02686E+00	-3.51176E+00	490.00000
3.02638E+00	-3.51733E+00	491.00000
3.02589E+00	-3.52353E+00	492.00000
3.02536E+00	-3.53059E+00	493.00000
3.02487E+00	-3.53660E+00	494.00000
3.02439E+00	-3.54194E+00	495.00000
3.02389E+00	-3.54834E+00	496.00000
3.02337E+00	-3.55515E+00	497.00000
3.02288E+00	-3.56081E+00	498.00000
3.02240E+00	-3.56662E+00	499.00000
3.02188E+00	-3.57356E+00	500.00000
3.02137E+00	-3.58001E+00	501.00000
3.02090E+00	-3.58509E+00	502.00000
3.02040E+00	-3.59115E+00	503.00000
3.01987E+00	-3.59811E+00	504.00000
3.01938E+00	-3.60389E+00	505.00000
3.01891E+00	-3.60910E+00	506.00000
3.01840E+00	-3.61557E+00	507.00000
3.01788E+00	-3.62211E+00	508.00000
3.01740E+00	-3.62733E+00	509.00000
3.01691E+00	-3.63305E+00	510.00000
3.01639E+00	-3.63959E+00	511.00000
3.01590E+00	-3.64521E+00	512.00000
3.01543E+00	-3.65006E+00	513.00000
3.01493E+00	-3.65629E+00	514.00000
3.01441E+00	-3.66282E+00	515.00000
3.01392E+00	-3.66802E+00	516.00000
3.01344E+00	-3.67321E+00	517.00000
3.01292E+00	-3.67958E+00	518.00000
3.01242E+00	-3.68569E+00	519.00000
3.01193E+00	-3.69059E+00	520.00000
3.01143E+00	-3.69634E+00	521.00000
3.01092E+00	-3.70275E+00	522.00000
3.01043E+00	-3.70802E+00	523.00000
3.00996E+00	-3.71259E+00	524.00000
3.00945E+00	-3.71867E+00	525.00000
3.00893E+00	-3.72516E+00	526.00000
3.00845E+00	-3.73000E+00	527.00000
3.00796E+00	-3.73504E+00	528.00000
3.00744E+00	-3.74115E+00	529.00000
3.00694E+00	-3.74689E+00	530.00000
3.00646E+00	-3.75159E+00	531.00000
3.00596E+00	-3.75698E+00	532.00000
3.00544E+00	-3.76300E+00	533.00000
3.00495E+00	-3.76811E+00	534.00000
3.00447E+00	-3.77270E+00	535.00000
3.00396E+00	-3.77854E+00	536.00000
3.00344E+00	-3.78450E+00	537.00000
3.00296E+00	-3.78880E+00	538.00000
3.00248E+00	-3.79364E+00	539.00000
3.00196E+00	-3.79960E+00	540.00000
3.00146E+00	-3.80479E+00	541.00000
3.00098E+00	-3.80909E+00	542.00000
3.00048E+00	-3.81452E+00	543.00000
2.99996E+00	-3.82024E+00	544.00000
2.99948E+00	-3.82483E+00	545.00000
2.99899E+00	-3.82951E+00	546.00000
2.99847E+00	-3.83505E+00	547.00000
2.99797E+00	-3.84028E+00	548.00000
2.99750E+00	-3.84423E+00	549.00000
2.99700E+00	-3.84921E+00	550.00000
2.99648E+00	-3.85492E+00	551.00000
2.99598E+00	-3.85951E+00	552.00000
2.99551E+00	-3.86341E+00	553.00000
2.99501E+00	-3.86835E+00	554.00000
2.99449E+00	-3.87377E+00	555.00000
2.99400E+00	-3.87793E+00	556.00000
2.99351E+00	-3.88226E+00	557.00000
2.99299E+00	-3.88767E+00	558.00000
2.99249E+00	-3.89248E+00	559.00000
2.99201E+00	-3.89612E+00	560.00000
2.99151E+00	-3.90064E+00	561.00000
2.99099E+00	-3.90584E+00	562.00000
2.99050E+00	-3.90992E+00	563.00000
2.99002E+00	-3.91348E+00	564.00000
2.98951E+00	-3.91842E+00	565.00000
2.98899E+00	-3.92335E+00	566.00000
2.98852E+00	-3.92684E+00	567.00000
2.98802E+00	-3.93095E+00	568.00000
2.98750E+00	-3.93595E+00	569.00000
2.98701E+00	-3.93986E+00	570.00000
2.98654E+00	-3.94291E+00	571.00000
2.98603E+00	-3.94747E+00	572.00000
2.98551E+00	-3.95222E+00	573.00000
